447
442
428
426
427
429
357
663
565
421
420
424
434
448
467
486
495
494
457
416
401
400
398
403
408
408
408
418
436
423
404
400
397
393
310
662
463
367
362
364
372
383
403
416
423
413
376
336
320
322
320
327
330
333
335
343
360
367
346
344
347
345
315
517
527
338
334
338
349
362
378
400
411
415
384
343
326
327
330
331
336
342
345
353
370
382
363
357
355
358
354
361
653
357
348
353
362
374
389
411
428
433
413
374
351
350
353
355
362
367
369
380
402
391
380
379
383
383
312
661
458
371
369
374
385
399
416
435
443
438
403
366
358
360
360
365
372
373
378
392
405
388
381
379
380
379
304
661
378
365
366
374
383
397
412
427
433
419
379
351
348
350
352
354
358
366
385
388
371
369
369
370
364
379
636
363
356
359
368
380
398
417
428
428
406
366
345
345
349
354
358
367
378
395
379
372
373
375
375
295
662
401
368
365
375
383
400
417
434
448
436
402
368
363
362
369
377
388
410
410
394
391
390
394
384
465
621
390
391
397
405
415
438
454
470
467
442
402
382
379
378
381
395
413
410
387
377
376
375
370
328
658
360
349
346
354
359
372
387
397
400
378
333
307
301
300
303
303
317
337
324
308
307
306
306
272
486
428
301
296
302
314
327
345
364
377
381
349
315
303
307
311
318
324
332
340
358
374
356
353
353
359
358
328
659
362
355
360
370
382
397
416
431
439
421
382
360
359
362
368
374
380
384
389
395
410
420
405
399
399
402
387
485
634
393
391
396
404
414
429
448
458
460
435
396
375
374
378
381
383
387
390
391
400
418
408
394
395
392
395
308
662
418
386
389
394
401
413
432
452
456
452
411
384
373
377
378
384
389
394
399
416
422
405
400
398
399
389
443
629
391
383
386
395
405
420
439
451
448
425
382
359
355
356
357
361
365
374
394
385
368
368
368
370
321
588
464
355
354
357
366
378
394
412
422
418
386
348
335
337
342
346
352
354
362
381
386
373
368
369
370
360
419
622
368
360
366
374
386
400
419
432
434
411
372
352
352
355
357
362
366
369
375
383
405
394
382
381
383
381
295
661
414
370
369
374
385
396
412
427
434
427
390
357
346
347
351
354
359
362
365
370
371
382
401
384
377
378
379
377
338
659
378
368
370
378
389
403
420
434
438
426
385
357
353
354
358
363
367
372
374
378
386
405
395
385
384
385
384
304
661
420
380
381
388
399
412
430
450
457
455
417
387
377
378
383
387
392
396
402
407
428
425
410
406
406
403
358
631
515
397
395
403
408
421
442
459
471
467
434
398
379
378
380
381
387
395
394
409
424
414
396
394
395
392
305
663
425
379
376
385
390
403
425
439
442
434
393
356
340
342
339
342
344
354
374
370
349
340
339
336
316
454
532
324
317
322
328
338
359
377
388
387
356
311
294
291
294
296
300
306
328
336
319
313
312
312
315
226
659
327
309
309
314
328
341
362
379
385
370
327
299
292
294
291
295
298
300
305
323
323
305
301
300
299
279
403
479
288
279
280
288
295
310
332
343
347
319
280
262
261
265
266
272
277
280
286
289
297
320
316
307
307
311
315
239
642
364
318
317
327
341
355
377
397
412
412
382
350
341
346
351
357
365
370
379
382
393
413
408
396
401
404
407
335
663
489
408
408
416
428
441
459
478
489
488
456
418
404
405
405
413
416
417
423
424
427
447
440
422
420
415
419
341
662
465
398
397
400
407
419
438
453
458
455
421
385
367
366
369
374
378
379
390
409
406
385
380
383
376
341
569
521
364
356
357
362
370
386
397
402
400
362
314
291
287
280
280
279
290
304
303
276
269
268
266
238
417
421
261
252
261
270
287
307
332
348
353
324
287
273
275
281
289
300
313
344
343
330
331
335
342
324
476
562
352
347
358
368
383
406
431
443
450
424
385
369
373
376
381
389
394
410
434
423
414
412
414
415
346
662
534
403
402
409
414
428
448
468
478
476
437
402
391
394
395
399
401
405
407
415
437
426
416
412
411
411
320
663
450
395
394
399
407
420
440
457
464
455
415
382
373
372
372
376
380
382
388
406
408
392
385
387
389
366
496
598
374
366
371
381
390
404
424
433
440
409
368
351
347
349
353
351
356
357
371
383
360
354
348
346
344
289
644
337
326
324
333
343
356
376
390
394
375
336
309
296
298
303
307
316
327
350
352
334
332
339
339
321
471
540
340
336
347
365
381
404
428
443
447
426
383
361
361
358
360
364
387
406
399
381
378
380
381
301
662
443
372
365
372
381
395
416
439
445
435
396
362
351
351
355
357
368
394
390
373
362
364
364
355
417
649
357
350
357
366
381
397
422
430
437
413
368
346
350
350
354
358
366
387
398
380
368
373
375
375
333
662
373
369
372
377
390
408
428
446
452
434
393
367
365
365
369
374
376
380
399
409
392
386
386
383
384
350
662
378
372
375
381
395
410
429
445
451
432
392
361
362
359
364
364
370
371
370
373
394
382
364
361
359
360
268
661
373
330
323
323
326
335
350
362
363
358
317
275
258
257
254
256
259
259
261
265
279
287
269
263
263
266
250
367
463
270
264
272
283
299
318
343
360
369
351
311
295
299
306
313
318
326
333
340
356
376
359
354
356
357
358
316
660
357
346
349
356
366
379
400
414
419
402
358
329
323
325
328
331
336
338
345
362
368
351
345
349
348
339
394
596
346
341
345
354
364
382
400
419
421
406
369
347
351
357
360
372
374
381
393
414
413
398
398
400
402
350
643
509
396
392
398
409
423
439
459
470
471
440
402
382
382
381
384
389
398
401
420
428
406
396
395
393
390
394
661
387
379
383
389
398
413
433
447
448
431
387
360
357
357
360
365
367
384
401
392
379
377
379
379
306
661
452
372
369
377
387
404
421
437
447
443
407
370
359
361
364
366
373
383
401
412
392
386
385
386
385
346
662
381
373
375
386
397
411
430
445
448
433
393
368
364
367
369
373
377
379
390
410
402
388
387
388
386
312
662
458
378
374
379
389
400
417
435
444
441
405
370
356
357
361
364
368
371
375
388
403
385
379
380
376
375
304
661
377
367
365
376
387
403
420
439
444
436
397
364
361
365
366
371
376
380
400
400
384
378
377
377
363
431
586
358
350
347
353
358
373
390
398
393
366
319
291
285
280
280
282
289
304
310
287
277
273
273
274
188
628
287
268
275
277
296
309
332
353
360
350
312
278
275
279
289
298
308
343
343
328
330
330
342
341
375
656
357
354
360
374
394
415
435
454
457
436
391
372
376
376
388
400
428
438
424
412
420
420
424
326
665
452
410
409
414
429
443
465
479
482
465
423
390
384
381
385
385
397
417
402
377
372
369
366
303
656
492
342
337
343
347
363
383
401
412
405
366
328
314
321
320
325
331
335
348
372
365
349
348
352
353
282
660
449
348
347
356
367
382
404
426
438
437
399
360
347
349
353
357
362
365
369
376
373
375
378
384
389
382
385
386
388
308
663
389
369
369
375
382
394
414
430
439
432
396
362
351
352
354
355
362
365
366
369
370
372
382
400
377
371
371
372
358
455
623
360
357
360
366
372
388
409
423
424
404
364
336
333
333
335
336
336
335
338
340
359
354
334
330
331
330
276
565
405
312
305
309
318
333
350
372
381
380
351
307
290
289
291
296
302
306
316
340
337
321
317
321
321
304
448
525
329
324
331
341
358
377
404
418
425
397
359
339
341
345
352
357
365
384
403
394
383
383
385
387
319
661
474
383
377
386
395
410
431
454
462
458
421
381
368
367
370
371
374
384
403
406
386
379
377
378
378
311
662
373
362
366
373
383
397
416
435
440
424
382
354
350
354
357
362
367
370
386
401
388
380
379
380
380
291
662
414
372
371
378
386
401
420
438
447
441
404
370
360
361
363
366
373
375
388
405
397
387
383
384
386
331
642
486
379
376
382
392
405
421
437
449
445
412
377
363
364
364
367
371
375
380
397
403
387
383
381
384
378
368
658
377
370
373
380
390
404
422
437
444
425
383
357
354
357
362
365
368
369
385
398
384
374
377
375
377
290
662
398
362
362
368
377
384
401
417
425
414
376
337
326
324
322
326
328
328
347
352
333
325
320
321
323
241
648
328
308
307
318
330
347
367
381
390
380
344
311
305
307
311
318
327
350
357
341
334
335
336
337
252
660
360
338
338
348
358
374
396
414
420
411
372
340
334
337
340
347
351
371
384
375
361
363
367
367
304
655
454
363
362
368
380
393
413
435
447
444
410
376
362
366
368
373
379
387
410
414
398
392
393
399
397
373
661
390
385
388
397
404
421
443
459
464
444
400
374
371
374
378
380
386
404
410
397
386
388
389
389
309
662
385
373
372
382
392
406
424
440
446
432
392
365
359
361
363
366
370
388
403
387
376
377
375
372
292
661
407
354
348
354
359
370
381
395
401
391
354
312
302
299
302
303
307
322
330
314
307
305
305
304
219
648
314
296
299
308
319
335
356
371
380
370
333
306
303
310
314
323
341
359
350
344
346
352
354
295
624
424
357
358
365
378
392
413
432
444
441
411
379
368
372
377
381
391
402
420
412
403
404
410
409
336
662
469
406
408
418
429
437
462
476
487
484
451
414
403
404
406
415
417
424
445
453
435
427
424
428
427
341
663
429
411
409
416
428
435
452
469
475
456
416
381
366
365
363
372
383
411
404
373
368
361
356
338
374
647
347
340
343
353
362
379
398
409
412
389
349
326
320
322
324
338
367
363
341
334
334
336
333
301
661
329
318
323
333
345
367
393
407
412
394
353
327
328
324
327
334
363
370
352
343
346
350
349
270
662
348
334
337
337
352
378
395
405
411
400
360
330
330
331
339
343
358
375
365
341
342
342
349
308
605
508
359
360
361
374
386
403
426
435
438
408
368
353
351
356
360
360
380
397
387
374
377
378
387
306
661
452
374
370
388
392
415
430
442
459
444
407
373
360
366
367
365
377
390
411
401
383
387
387
386
322
653
473
387
380
383
394
404
423
442
454
455
424
390
373
374
374
378
381
400
410
399
390
391
392
394
317
662
452
389
385
394
402
413
432
448
453
448
407
370
354
352
349
352
359
378
374
352
346
345
342
319
438
534
322
308
310
315
325
339
353
364
361
331
288
266
261
260
263
271
288
290
276
269
268
268
266
188
623
274
255
258
268
280
295
317
335
344
333
296
272
272
278
285
295
302
322
339
335
330
335
339
342
261
661
384
347
350
360
371
387
403
421
431
425
389
357
348
351
354
358
360
367
382
394
378
373
373
375
374
317
661
374
367
370
380
390
406
423
437
442
431
395
368
366
369
375
378
384
393
414
412
400
399
398
400
381
535
599
399
396
401
411
424
441
456
469
475
448
411
393
389
394
400
406
408
421
439
428
417
415
415
421
342
662
483
411
408
411
422
437
453
467
476
475
442
403
388
384
382
389
394
409
422
405
393
390
385
383
308
661
442
368
367
371
381
394
409
424
427
422
387
350
337
336
337
342
349
372
376
359
351
351
349
347
279
660
351
340
343
352
364
379
398
413
417
401
361
336
331
334
336
340
346
368
370
352
347
346
346
346
287
660
343
331
332
340
349
362
383
396
400
386
344
315
313
316
318
324
327
330
338
361
357
346
345
346
348
277
646
410
341
341
348
358
373
390
410
421
418
386
350
339
342
346
351
356
357
362
376
389
373
369
370
369
359
414
621
359
350
352
358
368
381
397
408
410
391
348
323
322
318
321
324
326
336
352
345
335
334
338
335
271
621
391
332
333
338
350
368
387
410
421
423
391
351
342
347
349
354
363
373
395
391
380
385
388
386
362
553
557
390
385
395
403
419
437
462
470
472
443
409
384
382
382
388
393
417
431
412
398
396
395
397
299
663
420
381
378
384
392
409
424
440
447
435
391
357
349
347
349
351
361
383
378
359
354
354
351
331
472
552
341
333
335
344
356
373
390
401
400
372
327
311
310
309
313
318
325
343
353
337
329
332
330
330
291
653
331
321
325
334
348
363
386
401
409
390
352
326
326
331
334
340
344
349
361
382
368
361
359
362
361
270
661
367
351
352
359
368
384
400
416
426
418
381
352
345
348
352
357
361
365
370
373
382
403
386
379
380
381
382
327
662
383
377
377
387
394
409
427
444
451
438
399
370
365
367
371
373
378
381
386
387
388
396
418
397
390
389
391
388
371
659
386
376
376
387
396
409
427
439
446
432
393
366
359
362
364
368
370
374
380
384
385
393
413
395
388
386
388
385
359
659
384
375
379
387
396
409
427
439
444
433
394
366
359
360
360
364
368
372
377
378
382
395
402
384
379
380
381
346
524
531
369
364
369
378
389
403
421
432
436
413
372
352
349
350
351
355
360
362
366
369
376
394
379
372
373
374
373
289
660
381
361
362
370
380
392
410
425
431
421
385
353
346
347
349
353
356
360
363
366
376
391
375
368
365
366
361
296
657
359
344
342
347
353
364
379
390
393
381
339
302
292
293
291
294
297
301
303
322
332
317
306
307
308
307
243
629
324
311
313
322
334
349
369
391
403
393
357
323
320
324
332
338
347
356
374
398
385
369
375
377
381
292
662
399
372
371
379
395
409
430
453
460
452
414
374
362
362
366
368
373
388
409
403
383
377
375
377
320
618
499
361
348
355
361
376
393
407
420
416
381
339
324
326
326
328
331
341
359
356
337
332
330
328
317
377
576
316
307
311
318
328
343
363
375
382
359
317
300
301
307
309
317
323
331
353
357
345
343
346
349
340
392
614
346
344
351
363
376
390
411
428
433
415
376
356
357
364
369
377
382
385
391
403
420
410
402
400
403
403
345
663
399
390
392
398
408
422
440
457
465
451
409
380
373
374
379
383
389
390
397
420
414
396
389
391
393
368
523
592
382
378
380
387
403
415
433
446
447
418
378
353
352
352
351
354
358
364
387
389
367
361
358
359
349
389
632
349
340
343
351
362
383
402
419
422
396
350
326
324
324
328
330
336
353
372
361
345
343
344
342
285
596
435
333
330
333
345
357
374
394
404
404
372
331
317
318
323
325
330
335
338
349
370
358
348
348
349
350
260
662
380
344
341
351
361
376
395
416
425
420
388
351
342
346
349
354
362
368
372
388
403
388
383
383
384
383
309
662
388
376
376
385
397
411
429
443
450
439
399
371
364
366
370
372
375
384
399
412
391
388
387
390
386
376
659
382
375
377
383
393
407
426
435
443
418
376
346
340
339
342
339
351
367
364
346
344
342
339
329
376
557
328
320
323
329
341
355
374
388
393
372
330
306
302
309
314
320
343
360
348
334
330
335
336
273
624
407
336
333
339
349
363
386
402
415
414
383
348
336
336
341
347
355
381
389
374
366
368
369
371
292
662
375
363
367
373
386
404
421
440
449
436
392
362
356
360
362
366
372
382
403
398
383
381
381
380
318
644
479
368
364
370
379
391
407
426
434
431
400
362
345
348
349
353
363
365
367
383
396
379
374
373
374
372
336
660
367
358
361
367
377
392
410
425
427
414
370
342
336
340
344
349
354
355
362
386
387
375
369
370
371
336
558
516
368
366
374
385
399
412
434
445
446
418
378
357
356
362
357
363
367
365
378
396
383
366
363
363
361
279
660
383
343
342
349
358
366
388
403
409
406
371
337
320
327
327
334
336
347
373
377
358
352
356
355
350
370
638
353
346
351
358
372
391
406
419
420
402
361
338
333
340
340
347
353
374
389
374
365
367
368
370
276
662
386
358
359
366
373
390
410
425
432
423
382
353
347
346
351
353
363
367
373
379
401
396
380
380
379
381
304
662
458
370
367
376
384
397
413
430
439
435
404
367
352
354
358
361
365
371
376
378
382
381
386
405
400
387
386
386
387
297
663
397
368
365
370
377
384
398
413
416
409
373
333
317
318
318
320
321
325
327
330
329
330
330
329
344
342
327
326
326
328
238
659
347
316
316
324
333
347
366
383
393
393
362
328
318
320
325
332
340
350
355
361
368
373
386
404
388
383
388
394
378
461
631
396
392
399
411
417
436
455
470
474
456
418
394
384
390
390
398
405
407
411
412
419
437
435
417
417
413
411
332
662
463
402
402
405
416
429
445
463
471
464
434
393
371
370
372
375
378
382
387
391
410
412
393
390
388
391
356
560
549
383
375
381
385
395
411
425
438
436
409
365
341
335
337
338
343
346
350
354
376
378
358
353
355
353
340
452
554
354
346
354
361
371
384
404
418
419
400
359
332
331
332
339
341
342
352
358
377
388
371
366
363
367
364
325
657
367
355
358
366
373
385
404
418
422
412
373
335
329
328
332
336
339
344
348
350
356
375
370
357
353
355
356
282
658
394
347
341
347
354
363
377
394
402
402
371
330
311
311
310
314
318
322
326
329
335
351
345
332
330
327
330
263
605
379
321
321
327
336
348
364
382
397
398
373
337
321
323
329
334
338
344
351
367
383
386
372
377
379
384
347
575
507
385
384
393
399
416
434
454
467
470
451
405
385
381
384
386
393
397
402
414
432
417
406
405
406
407
332
662
468
393
389
392
399
410
427
444
452
450
420
379
357
353
352
351
356
357
365
386
381
364
361
360
364
342
465
569
353
347
351
358
371
388
406
419
424
404
361
336
336
337
342
346
352
354
362
376
387
370
366
367
367
365
323
660
365
355
356
365
376
385
404
420
425
416
380
348
340
344
347
353
357
361
364
370
373
393
395
378
373
374
374
339
546
524
364
357
361
367
372
384
399
408
408
387
347
321
315
315
317
320
322
325
329
333
337
355
348
336
332
334
336
267
619
391
329
328
336
346
357
372
391
401
402
381
343
326
329
333
339
344
350
357
364
367
376
393
394
382
380
383
381
334
604
489
381
377
389
397
408
423
444
459
462
442
403
380
377
378
383
388
393
398
402
419
433
414
407
404
409
410
333
662
423
402
398
404
416
428
442
458
466
459
428
387
373
370
369
372
377
381
382
393
411
398
381
377
378
378
309
656
443
365
360
364
373
382
399
412
424
423
398
355
337
335
337
340
346
350
359
378
384
364
359
358
356
353
332
654
353
341
343
352
360
373
392
405
410
396
355
322
317
319
318
322
327
329
332
336
355
348
332
326
326
325
274
546
415
310
304
308
315
327
341
357
371
373
350
308
289
286
293
298
304
311
318
324
330
348
360
346
342
344
349
347
343
647
358
352
358
367
378
392
412
429
439
431
396
366
362
365
364
370
378
387
393
396
414
426
408
405
406
404
404
361
662
406
396
398
407
421
434
450
468
475
460
423
388
381
381
386
391
391
397
404
409
428
432
414
415
414
409
389
529
605
404
394
406
414
422
434
458
466
465
448
405
374
367
363
365
365
370
376
394
395
373
371
370
368
362
362
652
356
351
348
360
369
387
405
421
430
416
371
340
330
330
330
337
350
382
374
358
354
355
361
362
347
662
364
358
361
366
379
392
413
429
435
420
382
352
341
349
350
358
382
392
368
355
351
356
359
264
663
387
346
337
343
351
371
388
405
417
405
373
339
326
323
322
326
341
359
343
328
329
328
332
268
645
428
319
312
318
328
344
364
383
394
397
366
323
313
317
321
326
333
349
369
354
336
335
338
339
266
660
416
333
328
332
345
355
371
387
395
392
360
318
299
297
302
302
303
308
310
324
341
325
319
316
319
324
246
661
331
315
316
327
336
348
370
387
398
391
352
323
318
324
330
337
342
348
353
367
391
379
373
374
377
379
290
662
398
377
379
388
398
411
430
444
454
450
417
382
373
374
379
385
389
393
396
402
407
429
419
408
407
410
410
324
663
441
402
401
411
419
433
454
467
476
472
437
404
383
386
384
387
390
392
395
400
415
425
403
397
397
396
378
472
633
387
383
388
394
405
419
436
449
453
436
394
364
355
351
361
361
363
373
397
393
371
370
368
363
335
530
545
355
344
353
355
369
385
400
412
410
388
341
316
311
312
317
320
337
354
340
327
322
326
326
270
588
418
316
311
321
328
345
367
386
398
401
375
328
317
314
317
326
332
344
370
368
352
351
353
355
328
507
546
349
347
355
363
379
396
416
432
434
406
369
343
344
348
349
355
361
370
393
392
376
372
373
377
358
479
611
367
362
364
373
386
402
418
433
437
415
374
348
344
348
347
350
355
356
358
365
385
379
367
364
363
365
287
660
419
353
348
355
366
378
393
412
421
421
392
353
341
338
343
347
350
355
360
365
368
374
399
393
378
381
383
384
294
662
411
374
371
378
386
399
417
435
443
441
412
374
357
358
359
361
367
373
371
375
384
403
384
376
376
378
375
307
661
383
364
366
370
379
393
411
428
433
428
395
357
345
345
347
348
355
360
361
380
379
362
362
363
364
327
547
507
356
354
361
368
378
395
414
428
429
403
360
340
338
340
344
353
357
364
380
388
372
365
364
366
362
342
658
364
358
355
370
380
394
418
432
443
432
394
362
355
358
366
369
376
381
406
411
397
391
391
395
394
314
661
401
386
391
394
402
413
437
448
457
448
413
377
362
358
360
364
364
386
403
381
368
368
369
372
281
661
399
356
352
353
362
375
392
406
417
411
376
335
320
318
318
321
335
356
357
345
333
337
338
344
275
661
348
334
333
345
355
372
391
414
420
403
366
338
326
330
335
337
340
351
373
357
349
345
347
344
262
659
390
334
330
337
347
355
376
387
403
400
361
330
311
319
317
323
331
336
348
365
356
348
350
352
359
275
661
411
352
353
360
375
390
410
424
439
441
413
379
361
364
372
374
382
394
397
406
426
426
415
413
415
417
356
661
537
414
414
421
424
431
452
471
485
489
463
420
394
386
386
390
390
394
400
415
405
388
389
382
386
310
661
432
370
370
366
369
381
395
406
418
414
391
347
336
326
331
332
337
346
365
368
344
342
341
343
336
322
648
335
326
329
333
343
358
379
396
394
383
343
319
314
314
319
322
332
348
362
354
341
343
345
346
272
644
416
345
336
341
353
368
386
405
416
422
386
350
331
335
342
340
350
352
359
368
391
380
369
370
373
378
281
662
423
372
373
380
390
406
430
449
458
460
431
388
377
373
373
382
381
385
392
414
415
391
387
384
384
371
393
659
365
357
355
359
374
390
407
421
424
406
364
336
325
325
325
320
329
335
339
360
351
330
329
326
325
241
639
376
307
293
300
309
322
338
357
368
367
339
297
280
282
282
291
298
298
309
314
322
344
343
328
325
328
333
280
584
454
333
329
332
349
357
376
400
414
422
407
363
352
349
358
365
374
372
378
376
384
386
394
418
406
396
403
405
408
314
663
455
407
413
424
425
440
457
468
474
476
444
400
390
383
381
385
384
385
386
385
385
401
403
386
381
384
384
376
430
650
375
366
369
375
384
395
417
427
433
420
379
348
343
342
341
345
343
346
348
351
356
361
385
369
361
362
363
368
297
660
381
365
365
373
381
398
418
438
445
444
409
373
361
359
364
368
367
376
376
383
406
399
388
377
384
379
337
590
526
374
369
378
380
390
402
424
433
436
411
373
342
338
340
343
343
346
348
361
375
361
350
351
353
360
257
662
387
352
344
352
361
373
388
409
412
413
379
341
330
331
331
339
338
339
346
362
368
351
346
346
349
348
294
659
349
340
339
347
358
369
387
411
418
407
370
340
336
326
326
335
329
342
338
358
368
351
353
354
356
342
384
619
342
339
340
360
372
388
413
437
439
432
391
373
367
367
377
382
371
385
382
398
400
395
403
401
400
399
319
661
396
383
377
395
395
415
440
448
456
447
401
359
347
354
358
361
361
366
378
395
377
372
373
371
369
284
656
431
351
344
357
350
359
377
400
391
388
365
371
308
269
292
294
284
291
321
321
334
289
300
314
311
255
550
429
320
315
327
336
351
381
380
392
418
373
342
327
343
336
355
374
342
368
391
388
372
382
383
371
387
271
662
431
362
375
368
392
398
427
443
432
431
405
367
358
348
359
372
368
374
377
395
406
390
384
384
384
388
318
629
524
377
373
369
384
394
410
426
433
431
414
372
349
352
360
360
365
364
369
379
393
387
376
379
379
381
316
625
497
383
360
381
378
394
398
421
432
432
413
366
351
353
373
357
361
348
352
366
387
373
376
368
364
385
368
309
660
379
365
361
367
371
398
396
418
427
425
389
350
356
352
364
358
364
361
368
384
394
378
387
377
384
378
315
661
378
370
373
374
388
403
416
431
437
437
392
362
353
354
350
360
362
363
371
381
387
379
372
371
377
379
285
661
390
369
363
372
381
395
410
426
428
429
395
364
351
357
356
363
364
370
375
381
397
390
391
383
389
387
302
661
451
384
381
392
393
412
426
446
455
451
420
386
373
360
369
373
377
381
400
406
389
381
383
377
375
297
657
430
361
355
359
363
377
395
408
412
417
395
345
327
330
335
332
340
346
367
360
348
349
348
344
307
486
515
342
334
344
349
365
388
404
416
423
397
356
334
338
337
340
346
369
378
358
352
355
355
356
261
661
386
346
348
345
364
382
387
413
422
417
383
349
335
337
347
347
361
383
382
370
363
372
372
356
453
637
365
351
354
365
379
400
422
436
450
422
380
362
356
362
365
368
382
403
394
381
385
383
388
322
655
541
383
373
381
387
405
423
439
450
450
413
378
367
361
371
366
386
401
390
373
378
380
381
343
547
590
366
357
362
368
379
396
413
419
426
400
354
335
336
338
343
339
350
368
359
353
349
349
343
332
428
579
335
331
334
339
343
361
380
391
398
373
333
317
309
319
321
326
326
336
341
341
363
363
357
352
354
358
283
654
426
357
346
351
361
375
392
409
421
419
396
350
337
330
341
338
344
347
349
364
377
360
352
359
353
355
255
661
377
344
346
347
361
372
390
407
419
406
371
335
322
328
329
338
342
350
370
373
358
353
351
356
349
365
649
350
349
347
352
367
383
407
417
425
409
369
342
339
342
356
350
363
365
371
391
394
377
386
384
385
313
658
509
384
377
382
395
397
425
436
443
450
419
377
360
360
369
364
372
377
379
385
390
398
411
401
387
392
396
389
361
662
385
374
377
382
392
413
419
435
440
431
388
362
355
355
358
365
372
372
376
379
380
391
410
392
388
391
384
387
382
659
393
375
381
389
396
412
424
438
445
437
399
377
367
378
376
385
391
401
404
404
412
427
437
416
414
421
423
392
539
644
412
406
403
420
419
434
452
467
464
450
412
373
370
370
368
368
368
378
369
372
398
377
373
369
376
366
260
662
411
356
352
356
367
377
392
415
420
422
383
347
331
333
331
337
342
344
347
375
376
359
354
355
354
338
415
615
343
337
338
345
356
367
393
403
402
387
336
311
308
304
313
325
319
323
327
334
350
353
342
337
337
341
320
470
549
346
335
354
362
365
377
401
407
424
410
368
349
348
355
368
366
374
363
391
397
393
389
399
400
395
316
662
422
394
391
402
413
425
435
456
464
468
425
398
385
387
390
389
392
389
406
416
424
402
399
391
390
373
351
654
375
353
364
369
376
395
402
426
424
417
386
351
337
342
344
344
342
348
361
377
381
369
368
369
372
332
550
533
356
349
349
361
372
389
405
427
422
403
363
345
338
345
346
351
358
359
384
382
374
374
378
371
366
403
656
366
362
361
371
381
397
410
419
429
412
378
351
352
355
355
364
365
367
377
393
400
388
380
388
393
375
423
654
381
376
383
391
400
411
436
452
462
442
401
370
365
377
372
378
381
387
381
400
409
400
396
389
394
391
294
662
414
383
378
380
391
408
423
438
435
437
395
353
345
346
355
353
366
366
371
382
390
376
370
369
368
374
291
662
377
360
357
365
371
382
399
418
423
415
378
346
344
340
346
352
357
358
361
367
387
384
370
374
373
378
319
586
540
368
358
365
374
378
395
419
426
429
406
368
346
347
349
353
357
361
367
365
366
374
373
389
397
385
378
382
387
360
482
606
386
376
369
389
390
411
417
432
437
421
386
356
352
352
351
347
366
356
346
346
348
369
353
349
353
361
365
274
660
407
363
379
373
388
381
405
416
433
434
404
371
358
357
355
365
367
374
373
388
398
381
381
382
386
382
392
645
380
375
371
377
398
418
437
432
446
429
385
370
365
354
367
371
383
379
399
396
378
378
378
389
375
391
647
378
364
363
369
380
387
394
416
407
389
359
326
313
318
319
326
329
328
344
344
332
326
323
320
318
277
629
319
300
300
307
310
323
339
354
358
351
306
280
270
272
273
279
278
280
285
300
298
277
284
289
287
240
491
399
289
287
295
300
315
330
349
362
366
347
310
297
299
309
314
325
329
337
341
352
376
360
358
360
362
365
275
661
403
363
365
364
373
373
396
405
427
417
396
369
359
367
363
369
378
380
369
378
395
397
391
393
397
405
388
456
652
392
389
393
400
400
414
435
451
449
438
393
366
358
356
361
364
369
364
375
393
382
375
371
374
370
291
631
398
327
319
321
333
339
362
384
393
392
366
328
306
307
310
314
315
324
328
338
329
321
321
330
327
276
509
429
333
323
327
336
356
359
386
382
394
367
355
323
340
335
354
351
363
389
389
380
376
379
373
373
279
662
389
371
372
391
414
417
436
449
449
447
404
380
380
388
386
405
406
424
426
411
400
423
425
412
324
663
401
367
376
372
377
393
421
430
437
432
391
363
362
369
370
382
373
402
389
380
373
380
359
368
295
660
380
369
355
364
376
400
428
447
447
464
404
393
391
401
399
406
409
407
401
413
384
375
374
379
369
320
658
365
350
353
363
374
383
412
436
453
441
417
390
381
390
390
397
395
409
407
393
378
366
361
353
251
660
346
321
320
319
328
337
352
365
366
353
308
269
261
260
259
262
275
284
293
294
285
288
301
293
191
654
324
290
280
293
304
319
338
362
377
373
341
312
301
307
318
323
330
330
349
360
350
343
359
355
361
282
660
360
344
347
354
356
361
377
389
399
389
357
327
312
317
320
316
317
321
337
346
335
332
335
341
335
289
647
349
337
339
350
360
370
394
406
415
403
375
337
333
331
339
343
359
365
387
392
382
387
389
391
383
430
637
382
377
380
389
396
414
430
444
451
440
408
379
375
373
374
381
387
391
401
419
403
392
394
390
385
294
660
389
360
361
355
367
366
379
388
393
391
351
318
306
304
306
304
308
307
323
329
316
314
316
318
321
265
635
325
306
316
318
332
347
363
376
389
382
342
314
306
310
316
316
330
352
359
356
350
364
362
362
310
658
374
361
363
371
383
397
420
434
443
431
401
369
367
370
376
378
392
409
398
398
394
398
405
343
637
514
397
384
392
403
416
431
447
462
459
433
401
379
381
383
390
395
414
417
401
397
397
401
375
490
634
385
375
387
383
395
414
429
438
440
428
382
362
359
367
358
368
387
375
363
365
362
354
316
544
511
338
328
328
337
340
348
368
378
374
343
305
285
285
289
295
303
318
313
293
298
303
305
222
594
370
290
288
299
305
319
343
361
370
369
340
302
293
298
300
311
331
343
345
338
333
339
338
269
633
443
347
347
354
371
375
399
415
425
429
399
356
351
351
361
360
364
392
380
371
374
375
373
308
637
492
366
361
368
381
393
403
425
435
435
406
370
357
362
359
365
373
383
399
387
382
387
387
387
304
662
389
373
379
376
392
403
419
429
433
423
383
344
351
350
352
350
355
368
373
365
363
361
362
333
498
506
353
340
350
358
363
384
405
410
411
388
349
327
324
330
329
335
350
366
355
341
349
348
344
342
627
351
334
336
346
360
377
397
409
414
392
356
332
333
327
340
346
364
367
358
356
358
359
342
477
575
353
348
348
357
370
379
411
423
419
400
362
343
346
343
358
362
380
393
379
373
381
379
363
437
653
373
372
373
385
396
400
428
431
451
414
373
344
343
351
344
347
360
377
383
373
372
376
375
303
657
480
377
375
380
388
408
423
438
450
449
409
379
356
368
364
365
368
375
384
402
377
375
376
363
326
513
553
350
335
335
343
360
363
368
388
383
373
331
312
322
320
311
326
321
330
337
357
356
329
339
330
311
435
530
340
327
343
329
343
346
361
374
374
365
332
321
327
329
333
332
333
354
330
341
346
362
359
355
358
345
324
476
509
343
342
352
368
386
407
431
442
452
427
393
361
364
366
366
372
380
384
385
384
389
401
394
387
381
381
380
286
662
388
358
356
359
367
380
398
410
417
418
385
346
336
341
339
348
352
356
360
365
379
385
369
371
364
371
277
660
412
356
352
346
364
370
377
399
382
385
355
312
296
318
302
334
337
342
364
357
377
372
379
360
375
364
410
638
368
361
357
362
375
386
405
421
423
412
380
353
356
357
375
373
389
402
405
423
426
409
396
398
404
308
663
460
407
401
403
420
423
440
446
461
451
428
384
369
367
383
377
384
391
387
410
405
382
379
398
369
308
638
520
370
356
361
362
366
367
385
391
384
364
325
317
336
349
356
364
372
395
401
398
386
393
393
381
445
660
380
369
380
388
393
414
430
441
439
417
365
335
335
334
339
346
354
366
381
367
356
354
352
349
243
662
345
313
305
317
311
319
333
342
341
328
289
254
249
250
249
255
261
260
277
298
289
273
278
279
282
263
638
289
277
282
301
314
337
355
383
381
378
345
318
322
332
341
342
359
364
390
389
386
377
381
388
362
481
657
375
375
372
389
400
411
429
460
445
427
395
371
369
377
381
385
388
391
406
415
389
389
394
387
338
587
553
367
362
365
375
384
404
411
430
426
409
363
349
348
348
351
354
359
363
383
379
372
373
378
380
274
663
407
370
374
378
393
404
422
442
446
454
417
378
373
372
379
380
385
386
401
414
392
386
392
391
329
611
508
377
365
367
376
384
406
417
426
426
402
357
338
346
337
349
351
361
372
367
349
355
349
352
247
661
373
339
336
343
356
361
384
401
416
401
368
337
332
329
338
339
341
369
373
354
347
352
358
342
354
632
338
328
329
334
336
352
368
379
383
355
314
284
285
280
280
281
289
300
309
302
292
292
303
293
205
651
320
295
292
308
319
331
355
372
375
378
347
313
317
320
330
333
343
355
369
383
377
371
375
383
372
432
634
388
379
378
393
403
423
438
453
463
438
404
391
380
377
385
393
396
402
409
426
436
424
422
429
417
395
538
640
413
403
415
417
432
452
464
482
480
464
426
405
406
409
411
417
419
423
419
430
438
428
419
413
410
404
365
662
390
374
368
372
377
382
404
418
420
404
366
341
327
328
333
328
331
341
341
364
360
349
346
351
348
268
629
406
340
338
338
350
357
376
399
403
400
378
333
316
326
326
332
338
343
337
352
369
368
356
352
360
361
301
600
455
356
351
358
367
376
393
410
417
418
393
355
338
335
340
353
346
354
360
363
377
389
371
368
372
367
373
317
657
369
356
352
365
365
383
401
415
428
415
384
357
346
358
359
357
367
367
380
402
387
379
377
383
382
304
662
429
374
374
385
397
404
426
442
447
443
414
374
353
356
352
350
358
360
369
375
352
350
348
343
334
343
623
324
316
315
316
327
339
360
364
369
347
313
281
276
283
283
288
289
305
321
309
297
301
307
307
209
644
354
309
304
318
326
344
359
381
391
393
361
320
314
319
328
332
344
343
358
375
373
364
366
367
373
294
628
466
361
359
363
375
381
403
417
437
427
402
366
357
352
361
369
374
374
379
390
411
395
393
391
394
393
315
662
396
388
390
395
409
418
438
459
464
451
417
388
377
381
382
395
391
394
407
423
426
415
408
405
412
402
410
657
399
394
393
399
413
422
442
455
457
439
395
366
355
353
357
357
359
360
379
382
356
350
347
350
332
404
579
334
332
323
334
344
358
377
397
399
375
336
310
315
316
322
326
328
349
362
353
342
343
348
347
247
661
375
337
331
338
348
361
381
398
406
396
359
329
318
320
325
334
338
346
347
372
373
360
359
368
362
339
458
601
354
353
360
360
374
387
409
421
429
406
359
343
340
348
351
358
354
360
366
368
392
383
370
374
369
372
281
661
427
366
359
367
379
385
404
419
429
431
395
357
348
351
358
360
368
370
373
384
384
414
395
393
390
392
392
301
662
421
391
384
393
395
410
426
442
451
443
410
368
354
354
349
355
361
360
364
365
386
381
360
355
359
360
294
598
455
347
330
338
341
346
365
379
389
392
354
314
290
294
284
296
293
296
302
318
324
308
300
299
300
291
251
616
284
266
268
270
287
298
318
334
339
325
287
265
262
266
272
282
289
296
302
318
338
328
329
332
338
344
259
661
361
347
351
357
373
396
413
437
450
447
413
387
379
388
392
394
405
408
413
423
447
441
434
432
438
436
352
663
496
432
432
433
438
451
473
489
501
500
464
425
414
414
405
408
398
397
419
417
405
401
400
405
399
381
660
387
380
383
386
396
412
432
447
450
435
394
360
350
350
350
351
361
385
383
366
355
353
354
350
289
660
348
335
333
340
357
368
388
404
410
398
356
328
328
327
331
336
355
371
366
352
350
352
351
307
562
504
343
333
340
346
362
376
395
405
406
380
336
319
319
319
324
336
359
360
346
343
345
345
341
339
648
341
334
337
342
352
368
383
397
400
382
339
311
307
305
304
305
305
315
326
308
298
294
292
289
188
645
299
267
265
271
279
290
308
324
334
329
296
266
260
264
270
279
287
291
299
311
338
335
332
333
341
344
286
639
435
359
363
375
386
403
424
443
461
469
447
408
393
397
397
403
411
418
420
435
455
444
434
435
434
436
349
663
499
422
422
425
434
450
467
483
488
481
452
413
392
390
391
388
391
395
418
414
392
382
382
377
371
395
651
359
348
346
351
357
371
384
397
393
371
324
291
287
283
286
291
293
308
316
300
289
288
289
288
187
644
312
273
275
280
291
304
326
348
355
356
321
289
282
289
294
303
311
318
324
334
358
361
348
349
351
355
319
533
523
355
349
357
368
379
396
418
430
435
414
375
354
352
357
360
366
371
374
377
383
386
388
408
413
398
395
396
396
346
629
552
390
387
391
400
407
421
438
448
450
429
391
371
368
370
372
377
381
382
387
391
392
394
404
419
401
397
397
397
390
406
657
389
382
383
391
396
412
430
439
450
443
402
372
368
366
370
373
378
385
386
391
407
415
396
391
392
391
382
456
624
392
382
386
389
402
416
435
448
448
431
388
354
347
344
350
351
355
356
362
375
380
362
355
356
356
352
309
656
354
340
343
347
358
372
386
403
407
399
358
326
320
325
327
333
339
340
344
357
375
367
357
357
357
357
280
659
415
348
345
353
363
374
392
406
418
417
389
352
337
337
340
345
350
352
357
362
376
387
373
369
371
376
375
319
661
385
366
380
387
398
420
441
465
466
466
429
398
390
391
394
403
408
411
423
442
438
426
420
425
420
399
537
636
407
405
410
411
421
435
460
468
466
445
403
372
367
360
362
366
372
394
405
389
376
373
375
375
293
661
414
354
350
353
363
380
398
414
423
420
382
343
328
321
321
321
329
349
355
341
330
333
332
332
235
661
353
319
317
327
334
352
371
390
396
390
352
317
311
311
316
322
330
342
364
357
348
348
349
351
322
508
535
347
341
345
357
370
388
410
425
428
402
361
342
343
347
352
356
356
358
366
387
374
359
359
359
358
291
637
424
342
334
337
339
346
354
368
372
366
334
289
269
266
259
255
251
248
246
242
257
249
229
222
219
216
186
357
346
204
198
200
213
225
245
271
291
296
284
249
233
241
246
259
274
286
296
308
316
334
364
360
360
365
375
376
306
662
428
395
406
418
428
450
470
491
497
502
469
433
419
417
418
420
427
428
430
431
453
457
437
432
427
427
424
418
662
416
412
413
419
428
442
461
475
480
459
421
392
382
385
390
387
391
395
399
402
425
420
403
404
402
401
383
520
645
397
391
393
402
412
427
445
456
457
435
388
360
358
357
361
364
365
367
370
371
373
394
395
378
372
376
376
353
508
632
363
358
360
371
382
395
414
427
428
412
372
344
343
347
350
354
355
359
361
367
388
386
372
366
366
367
354
442
636
358
350
353
359
365
376
394
405
412
397
360
328
322
328
328
328
327
333
339
356
364
349
345
347
347
347
272
657
352
338
338
346
358
367
390
404
411
410
374
340
324
325
329
335
342
343
353
374
372
354
350
350
350
341
377
623
346
339
338
347
356
371
392
407
411
397
362
330
323
328
330
333
337
352
371
368
353
355
357
360
342
451
589
357
351
356
366
378
395
411
427
433
415
374
350
347
351
353
358
363
370
384
393
379
377
375
378
379
314
661
379
366
367
376
387
397
415
431
435
425
386
353
345
347
346
348
352
353
358
377
375
357
353
352
351
341
369
613
339
328
329
336
345
356
373
384
390
375
336
308
303
305
307
309
312
316
328
345
333
328
329
330
331
253
647
376
328
328
335
347
360
378
396
408
407
379
344
331
333
339
341
348
352
355
369
387
375
369
371
375
379
303
660
440
374
375
382
391
403
419
437
448
452
424
388
371
375
376
381
385
390
396
412
428
410
409
407
411
410
326
662
435
404
406
414
422
435
455
466
473
468
437
402
384
386
383
385
387
388
392
409
399
381
376
374
370
343
483
555
352
342
346
349
361
373
393
404
407
389
349
320
321
322
326
330
337
343
354
373
361
354
355
356
355
281
656
421
352
350
356
365
379
398
414
427
426
397
358
341
338
337
340
344
347
352
363
379
370
360
359
358
357
268
661
387
341
335
341
348
355
370
382
393
386
353
311
295
288
288
290
290
290
294
311
303
285
286
281
281
254
435
416
278
273
281
292
308
326
352
363
371
353
317
297
296
299
310
320
332
347
371
358
350
353
358
363
287
660
442
366
361
370
385
396
420
441
451
456
425
385
369
370
373
376
383
398
419
403
390
389
391
392
347
610
572
383
377
385
391
404
425
439
452
454
422
382
360
359
359
362
369
370
379
399
386
374
371
373
370
321
599
510
364
359
366
376
392
407
427
444
442
415
379
363
364
372
373
384
384
396
414
419
406
399
400
401
398
380
661
393
386
386
392
401
409
428
442
439
425
383
348
340
337
342
341
341
343
347
365
365
342
337
335
333
321
392
585
324
314
316
325
336
351
373
390
392
376
333
308
304
306
308
312
319
332
355
347
333
330
334
335
301
529
508
334
328
335
345
363
384
403
416
420
393
353
336
332
337
343
347
353
362
378
392
376
370
373
374
376
290
663
386
368
369
376
391
407
429
446
455
447
406
379
366
370
377
378
383
390
397
417
425
411
404
406
408
405
340
664
403
394
392
399
411
423
447
460
470
457
417
381
373
374
374
376
379
381
385
398
409
391
379
376
374
366
270
662
364
341
331
333
340
349
364
375
383
367
326
287
276
272
274
275
276
280
284
296
309
289
284
283
288
283
197
657
299
277
281
290
302
320
342
359
367
361
326
295
291
294
303
313
321
331
340
346
365
377
365
365
367
370
367
395
658
370
369
376
386
400
415
433
448
455
441
400
376
375
378
383
389
391
398
405
409
432
431
415
414
417
415
385
568
635
406
404
405
416
426
440
457
469
471
448
408
383
382
380
385
387
392
394
400
417
423
403
397
394
395
385
417
657
383
377
379
387
395
409
426
438
439
425
377
346
337
339
337
341
344
347
349
366
371
352
349
347
346
342
325
652
342
329
330
339
349
365
381
397
405
392
350
321
316
316
324
327
335
337
343
350
369
369
357
353
356
356
317
544
514
352
347
352
361
373
389
407
421
424
404
363
341
340
344
351
354
356
363
371
390
400
385
382
387
385
377
455
637
383
381
385
394
404
422
440
452
460
442
399
371
363
367
368
371
377
381
395
408
392
375
376
375
369
282
661
392
349
348
357
364
379
392
411
416
413
376
334
319
318
320
321
327
332
355
355
334
327
326
328
320
350
620
326
311
320
327
343
360
382
397
402
388
345
316
316
321
322
329
338
359
368
352
346
347
348
347
251
661
361
335
333
343
357
371
393
414
423
418
382
349
344
347
356
358
366
373
393
410
395
391
395
398
398
313
663
407
385
387
391
403
413
435
449
454
443
406
368
357
355
360
359
363
366
381
388
368
363
364
364
359
334
656
355
347
345
355
364
378
395
412
417
402
359
331
327
328
331
334
340
344
348
370
368
355
351
354
354
303
584
465
346
341
347
357
366
384
406
415
418
393
353
335
335
339
343
348
351
355
368
384
372
367
368
374
370
284
662
389
367
367
374
387
398
417
433
440
433
398
363
355
358
361
368
373
372
381
403
399
385
387
391
392
348
588
556
388
382
388
397
410
427
448
455
462
437
398
379
378
383
381
389
404
425
419
406
403
408
408
379
563
580
397
392
398
402
415
431
450
458
458
431
387
365
359
356
358
360
365
388
385
361
355
351
350
342
367
621
341
329
330
337
346
362
377
390
392
373
331
299
293
294
297
303
307
326
341
329
318
321
326
326
239
660
363
322
321
330
343
357
375
392
405
403
370
334
323
327
331
334
338
342
348
360
380
369
358
359
359
362
266
662
392
352
350
358
369
381
398
414
425
424
392
356
345
345
351
354
360
366
367
373
381
400
401
389
386
386
389
341
600
538
379
377
385
395
406
422
442
451
456
436
395
370
371
373
375
379
380
387
386
394
416
407
390
391
390
392
324
661
462
383
381
383
394
406
422
441
449
450
423
383
359
356
358
358
364
363
364
370
389
382
364
362
361
358
297
606
451
342
336
339
347
359
375
390
403
401
377
338
313
313
314
320
325
328
335
348
362
349
342
343
345
344
248
661
360
335
335
343
354
367
387
403
412
409
373
339
332
335
338
346
353
357
363
380
389
376
372
373
375
372
320
661
369
360
363
372
379
390
408
422
428
419
378
345
339
343
346
349
352
353
361
381
384
370
370
375
376
361
439
624
375
375
379
387
400
416
434
452
459
444
404
377
373
375
380
382
389
395
402
421
414
398
393
395
393
342
622
497
380
371
377
381
389
406
419
427
426
405
362
338
332
333
333
339
341
345
359
370
349
341
341
339
335
268
657
341
323
328
332
343
359
380
395
401
394
357
323
316
318
323
329
334
338
356
371
363
352
355
356
354
270
661
406
347
348
356
364
379
399
417
429
427
398
361
345
346
350
354
360
366
368
377
397
389
379
378
376
376
309
651
471
367
361
369
379
392
410
428
438
439
412
371
356
357
360
364
366
369
373
379
394
400
387
386
384
387
382
355
661
367
362
362
370
380
396
411
426
431
419
381
349
340
340
344
346
351
355
358
365
380
387
369
366
367
367
359
390
625
359
351
356
360
370
383
398
410
417
400
362
333
322
324
325
326
329
333
337
335
350
366
350
342
340
346
341
274
652
355
336
337
349
357
369
387
406
413
407
379
344
333
332
334
343
346
351
355
373
386
375
363
365
368
371
284
661
396
359
361
366
372
385
405
418
427
425
391
354
336
339
341
341
350
349
359
382
375
356
354
356
359
330
505
547
354
348
353
360
374
390
411
424
427
408
367
344
340
341
344
350
350
357
371
388
374
368
367
369
369
283
662
410
362
360
365
372
385
401
417
426
421
391
354
337
336
340
345
348
352
354
357
372
384
369
364
363
365
365
273
661
374
354
353
361
374
384
402
418
426
420
387
355
342
346
349
352
357
359
367
370
377
384
403
395
388
389
390
392
304
662
407
382
382
390
398
408
426
444
447
445
413
373
357
355
357
359
359
360
362
363
376
390
376
369
371
369
369
285
661
375
353
353
359
368
378
393
409
416
409
375
337
327
327
330
332
334
339
341
351
365
374
361
357
361
363
355
394
628
361
358
362
370
381
397
418
434
441
429
394
364
357
359
365
365
374
382
390
410
407
388
387
390
387
362
528
582
380
373
377
386
398
418
442
450
454
432
390
360
355
354
356
358
362
370
389
381
361
353
354
350
330
450
584
338
329
331
332
347
361
379
392
397
375
333
305
301
299
301
303
314
337
343
323
318
313
314
317
218
660
330
303
306
314
326
342
364
377
390
381
348
309
300
299
304
305
312
318
337
349
337
331
334
337
340
242
662
372
336
338
346
357
375
395
417
427
425
396
356
345
348
351
360
361
368
372
376
393
407
389
385
383
386
387
320
662
387
375
376
384
393
408
425
444
451
443
407
370
360
362
363
368
373
374
376
379
381
383
389
409
397
388
386
387
388
294
663
417
376
374
378
388
398
417
435
446
449
421
384
369
369
369
373
374
377
383
386
388
392
414
409
392
392
391
396
336
647
507
385
379
388
392
403
419
436
448
448
429
385
364
358
359
360
361
368
365
370
377
396
375
364
362
364
362
272
662
399
345
341
345
353
365
381
397
406
400
371
330
310
308
307
310
311
315
316
324
341
333
318
315
319
316
262
548
416
308
302
309
317
329
350
371
381
387
369
328
309
309
314
319
324
332
336
346
352
373
382
366
364
367
370
374
327
661
375
365
368
377
391
403
422
441
450
441
404
368
358
359
359
366
366
368
369
373
379
400
388
376
375
377
376
304
657
449
367
359
363
373
384
401
422
438
455
432
385
373
369
363
372
373
369
367
371
388
385
366
364
361
362
344
397
604
350
336
339
349
357
372
389
404
406
394
355
327
318
319
324
331
336
341
360
368
357
345
343
351
352
264
661
396
350
352
355
368
383
402
417
429
428
399
361
344
342
347
349
355
357
370
390
379
365
365
367
366
332
549
546
363
359
362
372
383
398
417
429
433
416
376
351
348
352
354
356
362
365
367
383
396
375
372
374
375
377
295
662
380
364
366
372
381
397
416
431
441
439
409
370
363
362
368
370
375
376
378
385
400
412
397
389
387
390
389
324
661
386
376
375
383
389
404
421
434
437
431
392
354
337
333
331
334
336
341
344
365
373
355
350
352
353
355
275
662
356
347
347
359
366
382
402
418
425
419
381
349
339
342
346
345
349
350
363
380
365
354
354
356
356
282
650
438
339
332
336
345
354
368
384
392
392
364
320
303
301
303
303
305
309
310
316
336
321
312
312
313
312
245
584
375
302
299
306
314
325
344
361
375
376
352
313
293
293
297
300
305
309
312
318
322
331
352
340
334
334
337
340
251
658
372
334
335
345
354
368
387
406
419
422
400
363
347
349
353
359
367
374
380
388
395
402
408
413
427
448
434
433
439
445
437
494
661
448
448
454
463
476
491
507
522
529
524
490
454
439
437
438
437
437
437
438
437
435
433
432
445
445
423
417
414
410
373
567
567
390
382
382
388
391
404
418
427
428
412
371
341
331
331
332
334
337
339
342
344
347
346
352
369
353
344
347
344
348
276
655
357
339
340
346
356
372
387
404
415
412
382
350
332
332
335
340
342
348
355
355
361
367
386
376
369
365
370
367
293
660
396
359
362
363
372
384
404
421
427
429
404
365
343
337
335
344
346
352
356
364
390
372
362
356
360
363
287
659
414
347
342
351
360
376
397
413
420
417
396
358
338
336
335
341
348
356
377
382
351
344
342
337
335
232
662
350
321
320
331
339
358
379
396
407
397
363
329
321
326
330
335
341
358
374
361
349
350
352
352
293
640
525
350
348
354
367
381
403
426
437
441
412
375
356
362
364
370
377
385
390
418
411
391
389
384
382
360
486
640
364
357
356
362
375
384
405
416
415
395
346
315
305
303
304
303
307
306
306
307
324
328
306
299
297
297
279
347
550
282
266
266
270
278
295
314
326
329
316
275
242
237
236
243
247
257
257
263
269
277
277
281
286
295
317
307
308
312
316
318
323
647
336
327
332
340
357
373
399
419
433
429
401
365
352
357
364
370
377
382
389
391
399
399
412
434
417
415
410
417
419
343
663
427
410
406
412
423
435
454
469
480
472
435
396
372
352
373
359
352
366
364
369
368
376
397
397
394
418
409
402
396
419
399
332
662
428
405
393
409
422
417
450
462
473
476
434
386
355
343
340
331
330
335
338
339
353
366
355
338
340
340
342
270
640
396
350
345
350
363
367
381
400
410
413
386
358
327
340
342
355
353
353
352
352
342
344
354
349
337
338
334
341
329
237
661
356
323
325
340
353
366
392
406
423
423
392
356
349
350
357
361
364
372
369
378
391
407
389
393
390
393
389
341
662
401
388
387
397
402
413
439
448
453
448
412
381
371
370
380
378
383
388
392
398
412
421
412
392
397
395
390
308
662
451
370
363
363
367
375
384
398
406
403
377
340
316
314
310
311
310
310
316
313
327
346
336
331
333
341
338
264
635
403
343
344
354
364
378
395
414
426
424
399
362
344
334
339
343
352
360
362
371
392
397
378
369
365
366
357
395
641
372
366
371
374
385
399
418
436
437
433
402
368
365
367
370
368
373
378
399
390
375
378
382
387
369
498
649
385
381
380
390
398
411
426
434
436
420
380
353
347
354
358
361
368
382
381
361
347
341
336
323
224
661
339
302
297
302
309
321
335
351
359
364
343
313
300
300
300
303
302
314
333
321
310
309
313
313
271
486
408
292
286
287
296
309
329
346
361
366
353
319
298
296
303
311
321
329
350
360
345
347
351
357
354
310
654
367
354
357
366
378
386
406
417
425
417
387
354
346
351
357
361
367
373
390
395
381
381
382
384
381
392
646
383
378
380
391
400
413
429
441
446
436
402
372
363
365
371
376
381
386
387
403
411
396
393
395
396
393
390
656
394
387
390
399
409
421
433
445
450
441
403
373
361
363
362
367
371
373
378
396
399
386
384
380
375
368
407
624
373
361
364
370
378
386
401
415
418
408
373
349
344
347
351
360
365
370
384
390
375
372
376
377
377
356
659
377
372
372
379
386
398
415
427
434
420
382
351
346
346
350
354
358
362
377
384
369
366
365
366
369
320
658
366
353
358
365
373
384
399
416
423
413
375
343
338
338
342
347
354
358
364
387
384
372
376
376
377
325
610
453
372
368
374
383
393
407
426
432
431
411
373
349
348
351
354
362
367
371
383
397
383
378
377
379
377
355
636
380
370
371
379
388
403
417
427
432
423
385
354
344
341
349
352
355
359
381
383
371
360
365
365
343
449
476
345
337
335
343
355
372
391
394
400
380
346
315
295
294
300
296
309
328
327
304
295
293
288
288
295
525
292
283
284
293
299
316
334
348
354
362
336
274
276
277
286
301
313
325
319
305
297
312
301
235
615
340
310
311
325
342
357
374
392
403
403
379
350
344
350
353
367
374
397
408
393
388
394
398
401
336
662
411
396
401
406
415
431
452
465
468
468
435
400
388
386
392
392
416
429
419
399
400
398
399
330
662
490
389
381
388
395
409
423
440
446
444
417
375
352
354
355
359
384
390
378
363
366
367
369
281
662
403
354
349
360
367
382
401
418
427
422
393
355
341
344
344
348
363
385
379
365
361
364
362
343
479
583
358
352
357
368
374
395
412
426
427
411
371
348
347
346
352
356
371
391
380
366
366
370
368
295
660
448
364
354
358
371
384
397
414
423
425
395
360
342
343
344
351
370
388
377
364
363
365
365
304
636
470
359
355
359
367
382
399
417
425
424
395
357
342
344
346
349
362
383
381
369
362
364
366
354
432
613
359
355
355
365
376
391
410
422
423
406
365
344
341
347
349
356
361
366
385
392
380
373
378
378
369
400
649
375
366
374
380
392
405
426
436
444
434
396
366
359
360
363
368
372
376
379
397
405
386
377
378
376
367
422
628
368
364
364
367
378
393
407
419
420
404
363
332
319
317
318
318
320
330
345
335
312
304
304
300
227
573
354
280
271
276
282
290
311
326
333
334
308
266
246
247
248
255
263
287
301
287
281
283
288
290
200
659
318
295
293
304
321
342
360
380
392
387
357
324
320
322
328
338
343
364
383
374
367
367
373
378
291
663
415
374
374
384
398
412
432
447
457
453
423
386
376
375
380
386
391
394
405
426
417
405
405
407
406
335
661
496
396
392
400
410
420
436
451
459
459
431
392
375
375
379
383
385
387
390
392
397
409
420
403
397
396
396
372
520
602
384
377
380
388
396
405
419
431
434
420
381
353
347
349
352
355
360
363
367
385
394
378
375
375
375
365
403
627
369
365
369
378
385
401
415
430
432
420
384
353
349
351
357
359
363
369
377
398
399
384
379
379
382
346
548
533
375
372
374
384
394
411
431
443
443
421
387
358
353
354
356
363
366
382
400
383
371
365
371
365
285
661
419
355
350
358
365
382
398
416
420
419
389
351
332
333
336
340
346
354
375
381
366
357
358
361
359
275
662
365
347
351
356
369
384
403
417
425
419
381
350
335
338
339
347
351
356
362
363
376
392
376
373
372
373
374
301
662
379
362
369
374
386
398
418
437
445
440
407
371
360
365
367
371
376
384
388
395
400
423
421
405
402
403
405
356
627
579
394
389
394
409
416
434
450
461
463
442
400
375
367
368
372
379
378
383
386
408
405
386
379
381
378
361
455
646
362
353
354
364
377
388
405
420
422
400
357
330
324
324
327
330
338
345
354
380
368
351
346
343
348
283
618
479
340
333
341
351
366
386
404
415
416
392
352
333
333
336
340
343
348
353
365
378
363
349
348
348
348
249
663
369
335
330
336
346
357
374
391
399
394
360
326
310
313
315
317
321
324
326
331
332
339
358
360
342
335
335
342
287
588
465
330
325
331
338
351
372
392
409
411
399
353
328
323
325
328
332
339
341
345
355
375
371
355
355
360
359
316
567
484
359
353
359
371
385
400
423
434
436
419
379
356
353
356
356
368
371
377
381
384
396
412
403
394
395
395
401
324
661
468
396
391
399
405
418
440
456
471
466
448
408
381
372
358
380
372
382
393
390
400
387
356
334
328
332
326
380
612
351
344
344
349
354
366
383
397
401
397
362
338
333
336
336
338
340
343
354
362
342
331
324
326
319
216
660
322
286
283
282
286
291
302
315
323
314
283
244
230
234
234
231
242
244
244
258
282
271
262
263
271
275
212
583
344
287
288
297
312
327
350
369
382
389
369
334
316
319
324
334
340
352
356
365
393
389
380
380
383
388
359
545
619
389
388
394
406
418
436
452
467
472
455
418
397
393
397
400
404
410
411
419
439
436
419
414
416
416
401
512
657
406
404
408
417
427
438
455
468
471
457
419
391
387
387
391
394
397
400
408
425
412
402
400
401
399
330
660
479
387
384
390
399
408
425
437
446
448
423
386
368
365
368
364
370
372
379
378
395
406
391
380
378
377
377
300
659
382
366
365
376
385
397
414
429
437
436
407
372
358
355
358
364
368
368
372
385
399
385
373
376
377
377
292
661
391
366
367
371
382
394
407
424
433
434
397
365
348
347
352
357
362
364
372
386
394
377
375
375
378
377
367
643
375
369
375
377
387
405
421
446
444
435
397
366
348
361
362
369
373
380
405
408
387
382
382
372
371
326
641
379
373
371
378
393
400
425
424
435
430
395
363
353
353
358
369
373
390
407
388
379
382
384
378
312
657
412
382
377
382
393
402
417
435
439
447
414
383
361
355
362
363
372
392
396
376
369
378
374
379
318
658
380
362
367
369
381
397
416
433
430
427
390
357
343
344
346
352
369
382
371
362
362
364
367
294
660
413
365
370
368
383
394
419
427
443
436
411
370
359
356
356
359
375
391
385
363
361
364
366
341
516
509
362
356
365
371
385
403
423
430
430
414
367
352
345
348
346
355
384
392
376
372
369
371
370
281
662
373
355
355
358
368
386
407
419
426
418
381
347
338
332
339
359
384
379
356
348
349
348
342
364
645
342
332
334
341
352
372
388
399
406
388
348
321
320
323
325
344
364
358
341
340
341
343
292
599
463
336
329
332
344
356
376
395
406
407
377
339
324
321
324
327
337
358
367
351
344
345
347
345
269
661
354
338
337
346
360
377
396
415
420
407
370
341
334
337
347
349
351
357
354
356
372
384
362
366
367
371
325
607
506
365
356
366
368
375
399
419
431
438
412
381
349
351
350
352
360
369
371
375
383
384
387
405
403
394
394
397
397
333
662
399
385
386
388
398
411
434
444
456
449
416
377
365
360
364
368
370
372
375
375
377
375
381
380
397
400
379
375
376
380
298
663
387
361
353
359
367
378
397
415
417
424
389
351
331
328
326
332
336
341
347
345
350
371
371
355
355
355
351
311
572
491
354
345
351
358
371
385
406
416
422
397
360
341
338
340
340
344
352
353
358
363
368
379
392
378
370
370
374
346
512
592
367
363
364
372
379
395
418
429
436
422
382
358
352
354
361
364
364
373
377
381
381
404
402
386
383
385
386
318
660
458
380
379
385
392
403
417
436
447
448
421
377
355
353
354
354
357
364
364
367
364
380
396
381
376
369
370
370
345
659
373
366
367
372
378
397
415
430
437
426
387
354
349
346
350
354
359
360
365
368
379
393
385
376
376
376
378
289
661
382
364
363
369
373
390
409
427
434
430
394
358
345
345
353
349
353
362
363
364
369
385
388
369
369
370
374
354
480
583
371
364
367
370
378
394
409
426
432
420
376
345
336
338
338
345
346
350
350
348
360
376
375
357
352
356
359
276
660
401
350
341
350
357
367
383
403
414
413
392
349
331
331
334
336
344
344
346
352
356
360
373
383
371
368
367
367
361
396
636
364
359
359
369
379
390
408
421
431
418
383
354
342
344
351
353
357
358
361
364
369
369
384
394
381
378
375
379
362
457
597
371
369
368
378
386
402
421
428
441
429
394
363
356
348
358
357
366
366
365
373
380
395
382
375
375
376
375
303
660
385
363
369
372
381
391
412
426
435
431
402
365
347
347
350
355
361
357
364
373
388
373
360
361
365
367
274
661
387
355
353
358
365
378
397
411
427
421
393
355
341
337
339
344
344
351
354
368
369
355
348
347
348
321
459
514
333
324
325
329
336
350
364
379
378
360
322
293
285
287
290
288
287
291
297
309
297
289
290
292
294
212
630
301
283
286
298
307
323
348
357
368
365
333
302
295
297
303
309
316
323
334
355
354
344
344
347
353
307
566
451
357
358
364
373
388
403
426
439
443
423
386
368
366
369
373
381
385
393
406
411
400
395
402
400
393
427
653
396
388
395
403
410
427
440
456
462
451
414
382
375
379
382
385
388
394
406
415
402
397
402
400
403
329
661
411
390
390
400
408
417
436
453
460
460
426
396
378
375
378
372
373
376
384
397
383
369
367
368
363
276
660
374
339
332
333
341
352
367
381
387
379
351
306
285
289
286
288
292
298
324
321
301
298
299
302
294
329
555
300
291
295
301
315
330
348
366
371
361
323
297
292
298
303
310
315
327
346
350
333
334
340
341
337
377
610
347
341
346
358
371
386
407
423
429
416
378
351
347
353
354
360
364
369
376
395
399
387
386
388
390
381
427
654
384
381
383
392
402
415
431
445
448
436
398
370
364
368
372
376
379
382
385
389
392
395
416
408
395
398
399
398
312
662
407
384
383
391
398
411
422
436
445
447
418
379
361
359
360
364
363
364
364
369
381
392
372
367
361
363
361
315
649
362
349
351
357
369
382
398
415
416
412
375
339
329
330
329
335
340
340
347
365
372
355
349
352
352
350
335
644
353
345
348
354
364
381
398
413
420
412
373
343
334
336
338
342
346
351
355
369
383
369
363
361
364
364
291
661
375
358
361
367
378
393
409
422
432
426
391
358
347
350
352
357
359
363
366
369
379
395
384
375
375
375
374
287
661
398
366
368
373
382
393
409
426
433
431
403
365
350
350
352
356
357
361
366
368
373
374
380
397
384
375
374
374
371
304
660
374
356
354
361
367
377
391
404
410
402
371
334
318
320
321
323
324
329
330
333
332
334
337
340
357
350
340
339
339
341
262
657
351
331
333
337
349
359
375
392
402
400
374
337
323
324
327
331
336
341
346
349
354
359
362
378
377
366
364
365
364
319
563
469
357
350
355
360
368
384
400
411
417
402
363
333
325
332
334
339
350
354
363
363
365
368
383
390
376
370
374
375
343
558
479
377
370
374
387
397
404
423
428
427
406
358
320
291
303
288
285
283
272
295
315
317
303
288
303
302
311
228
653
343
324
336
336
348
363
385
401
410
411
383
349
334
340
345
359
364
373
385
407
405
398
398
404
411
352
660
494
407
407
409
418
431
449
463
473
478
452
402
386
384
384
385
390
395
407
416
406
396
395
393
395
314
661
402
383
380
386
397
410
430
445
447
446
411
376
359
360
362
365
365
378
396
384
361
365
365
367
312
627
468
366
359
369
378
391
407
424
440
443
418
380
355
355
353
352
357
374
382
372
360
360
363
365
300
643
447
358
354
358
369
382
396
413
423
421
395
352
336
337
342
345
351
362
374
364
357
357
360
360
281
660
396
353
352
357
367
381
399
416
424
420
391
354
340
341
346
350
355
362
378
381
368
367
367
368
362
411
602
367
362
364
375
383
398
417
432
435
421
384
356
351
353
360
360
366
369
369
374
391
402
381
379
383
382
365
461
597
375
371
371
378
390
405
422
438
442
428
387
355
347
344
349
350
353
356
359
382
378
358
351
350
352
333
423
584
342
332
331
339
353
369
387
402
403
384
349
316
309
309
311
315
320
335
352
348
331
326
328
330
279
569
444
326
320
327
337
352
372
394
407
408
380
337
317
319
320
324
334
341
345
352
378
369
357
356
358
360
304
614
490
358
351
359
368
381
400
421
436
438
412
373
348
350
353
354
359
366
367
372
376
379
381
381
388
406
396
385
386
387
388
322
662
389
374
373
379
388
399
420
439
446
441
410
371
354
357
355
360
363
364
367
368
371
372
375
375
375
377
376
378
395
399
384
381
381
381
289
662
412
365
360
367
375
387
401
418
430
432
411
372
348
346
346
348
353
356
358
361
364
366
368
369
368
373
391
380
373
371
372
371
331
660
373
360
362
369
377
388
407
423
431
429
395
359
345
347
348
350
354
358
361
363
367
369
370
373
390
387
375
374
375
376
292
662
410
365
364
369
376
386
403
422
431
433
407
369
350
344
348
351
351
359
365
364
368
374
372
389
393
376
375
377
378
305
659
422
370
367
371
381
395
409
429
440
444
420
380
353
350
349
354
356
361
365
367
380
393
379
369
369
370
368
288
660
379
358
358
364
374
385
403
420
427
423
391
352
339
337
339
344
348
352
354
362
385
380
364
367
367
367
326
547
510
358
353
357
367
378
391
411
423
428
410
371
344
344
346
347
352
356
360
362
367
386
388
372
370
371
373
359
429
608
368
359
365
371
380
394
412
425
433
424
385
353
345
347
350
351
355
358
360
362
362
368
386
373
361
359
358
357
266
659
377
336
331
335
339
347
358
371
378
376
352
308
284
278
275
274
274
275
274
276
277
276
282
296
279
272
268
271
268
194
598
283
266
266
276
284
298
320
339
352
355
329
294
283
282
291
305
307
319
325
332
340
366
364
352
359
364
369
323
595
466
382
379
384
396
409
431
450
468
477
463
424
394
389
389
401
402
405
413
415
440
442
419
419
422
424
416
430
662
412
410
413
417
434
450
467
484
480
474
437
403
390
391
390
395
397
404
428
426
401
401
394
396
381
430
659
377
370
373
379
390
408
425
441
443
427
