289
290
296
297
325
323
297
289
291
287
178
661
320
268
262
269
275
288
307
320
329
325
302
286
284
287
290
291
300
324
313
294
290
293
292
229
660
286
278
280
291
304
321
341
357
363
354
329
321
319
327
325
328
328
348
358
347
335
333
338
329
353
660
319
318
320
332
335
356
374
387
386
307
378
356
344
339
370
344
344
357
335
318
304
295
291
264
512
489
305
297
306
305
322
289
368
363
331
346
343
334
325
325
322
325
322
313
311
324
308
308
301
300
198
659
324
270
272
266
279
294
312
332
329
333
306
283
266
264
269
263
289
310
293
278
271
277
271
275
562
272
274
282
281
305
317
312
326
334
329
314
309
309
306
311
330
346
355
301
302
320
327
227
662
321
291
282
276
295
277
367
364
357
371
370
343
380
402
378
378
388
404
368
349
335
315
226
658
432
301
292
310
320
293
224
337
352
340
329
361
362
343
314
294
320
342
330
304
302
290
271
330
640
260
245
270
266
267
286
303
252
338
343
309
308
346
330
315
316
348
335
315
315
309
276
429
588
285
285
293
305
313
324
337
351
343
339
314
308
307
308
309
332
329
310
307
307
314
227
634
352
301
303
310
319
331
353
361
361
359
343
323
316
318
316
337
347
328
323
322
324
283
512
444
315
308
308
315
326
344
360
366
365
355
331
316
318
314
327
341
331
312
305
314
298
370
543
303
293
297
306
316
331
345
349
351
336
319
306
304
301
312
327
313
296
291
288
286
282
599
274
265
267
270
279
287
303
309
307
297
276
265
265
265
270
294
283
266
265
270
267
282
595
260
252
258
266
276
296
314
326
331
316
300
296
300
302
312
330
321
311
302
308
285
476
494
306
304
309
316
330
344
360
368
366
348
326
324
322
326
338
357
338
325
324
329
250
651
400
311
311
314
322
334
350
358
371
359
341
320
304
321
318
320
321
329
313
306
323
261
510
436
292
287
289
300
310
331
341
348
344
321
299
295
295
295
305
316
302
285
287
288
254
465
407
271
262
267
275
285
300
316
321
320
302
286
286
288
295
298
324
317
297
294
296
277
394
507
283
281
282
301
306
330
344
357
358
343
324
320
318
325
336
356
343
324
319
324
289
486
510
311
305
311
320
329
352
366
368
374
351
332
315
338
322
333
362
356
331
324
323
313
423
582
304
306
307
310
319
341
358
370
367
352
328
319
322
333
352
378
364
336
327
324
274
584
503
308
308
307
315
326
343
356
362
356
334
312
310
309
314
321
339
316
300
296
295
217
645
353
280
279
283
291
303
320
330
331
325
305
290
289
285
292
288
321
309
283
281
271
245
427
431
258
255
261
270
284
297
317
330
325
305
290
278
282
285
281
286
300
321
291
273
286
282
188
652
290
262
262
267
274
289
310
317
322
313
289
272
274
279
278
281
294
310
311
295
290
287
290
274
615
294
285
290
303
310
328
347
357
358
347
323
314
316
316
315
328
342
354
329
322
320
326
225
659
341
307
312
314
327
337
358
367
370
363
337
321
323
321
324
330
343
358
347
333
333
332
289
542
465
322
320
324
333
343
358
374
380
374
358
335
330
328
331
324
336
342
351
324
319
315
309
218
649
340
297
299
303
314
327
347
358
357
347
329
304
308
300
298
303
310
341
323
302
293
292
291
251
614
283
281
285
292
302
311
331
340
341
322
307
299
298
298
300
306
317
330
309
295
292
292
212
599
373
278
272
278
285
295
313
330
342
334
312
295
294
295
298
302
311
336
323
309
306
309
305
305
632
307
297
299
304
313
330
351
362
362
340
321
315
313
315
314
317
322
345
335
317
315
317
305
375
581
304
300
301
307
318
333
356
368
365
343
320
314
317
315
318
318
324
341
344
323
318
317
319
204
660
331
303
301
307
313
327
344
359
365
354
324
311
313
313
315
313
317
321
339
339
318
316
318
317
209
659
325
300
299
305
312
328
344
361
365
349
319
305
308
308
309
311
312
312
321
332
350
335
327
327
330
262
572
460
311
311
311
317
327
343
363
371
372
345
321
312
315
311
316
315
320
318
325
342
326
316
315
313
264
504
460
299
292
294
299
311
329
349
359
352
330
305
301
301
304
307
306
311
317
328
333
313
310
309
311
201
659
350
297
296
297
304
314
331
350
356
347
320
300
298
298
298
300
301
303
308
320
328
306
305
302
308
193
660
347
289
284
290
303
310
319
339
357
339
315
288
294
303
302
320
319
322
329
359
356
348
332
340
332
370
648
332
323
331
335
347
359
386
390
398
380
353
338
336
333
336
339
335
339
359
353
325
318
313
309
222
661
288
272
271
273
276
286
295
303
304
293
270
265
265
268
270
270
266
270
284
291
272
258
254
254
198
534
422
232
226
233
227
249
259
282
286
292
274
245
244
255
249
252
259
253
274
223
279
278
281
274
311
368
659
289
273
269
274
288
294
322
331
356
328
318
309
308
309
315
279
317
340
349
389
402
372
361
333
227
662
368
319
290
324
321
323
377
375
361
324
391
357
347
377
419
378
369
347
379
371
359
342
329
330
407
647
332
339
331
340
334
359
366
371
372
340
326
280
332
314
312
336
328
352
328
316
321
301
279
378
564
290
284
294
303
311
327
340
349
345
329
297
287
287
289
290
300
319
302
291
292
293
290
290
540
299
285
290
299
308
322
336
342
343
331
307
295
290
287
293
309
319
297
288
290
283
248
464
416
279
275
277
284
300
309
328
329
333
315
293
286
288
284
303
320
311
287
278
288
281
221
635
285
275
271
283
294
309
324
332
334
330
312
296
293
291
302
333
328
302
289
300
296
205
660
322
285
281
289
299
316
331
345
342
337
321
310
312
308
322
344
355
328
317
315
317
226
660
366
303
297
307
316
330
339
353
356
347
329
325
320
321
327
354
362
339
328
325
326
227
662
361
305
307
309
316
330
350
365
365
359
337
326
329
330
340
363
363
341
337
330
331
219
663
349
311
306
310
320
332
351
359
366
349
324
311
315
310
316
331
336
313
306
307
306
194
661
312
289
285
291
297
315
331
347
351
329
305
290
289
292
291
317
306
291
284
288
288
224
655
282
269
266
272
277
298
314
329
328
307
279
272
279
275
287
309
304
291
287
290
281
367
561
282
275
277
286
300
313
336
346
348
327
301
295
294
294
302
322
326
307
301
304
307
206
660
313
287
290
293
303
320
340
356
360
345
318
299
302
305
304
312
311
316
324
326
315
315
317
271
551
454
301
297
304
312
322
335
359
365
360
338
314
307
308
314
313
319
323
325
332
325
321
326
326
228
660
327
306
307
312
321
336
360
368
374
364
332
315
313
312
311
315
321
328
329
318
318
313
311
262
659
298
292
289
297
300
318
340
354
358
335
304
293
292
287
292
300
290
312
313
319
306
312
308
258
579
464
298
304
304
305
310
314
364
371
347
328
308
291
289
294
290
317
337
327
291
321
300
320
275
648
303
282
291
308
333
328
342
360
351
340
313
314
335
302
309
314
313
343
328
335
323
331
253
560
452
302
301
296
298
343
344
359
369
356
333
323
312
313
310
311
301
320
336
330
311
315
325
265
567
441
302
315
311
310
327
368
366
383
365
355
325
326
314
325
317
321
331
341
342
315
327
317
268
580
393
313
311
306
323
325
360
370
367
357
342
315
320
312
315
319
331
345
337
316
319
305
317
216
659
313
297
290
299
310
317
334
343
348
334
312
288
302
296
301
298
308
332
312
301
292
302
283
405
507
294
287
289
297
298
317
331
340
339
323
301
296
291
297
299
300
320
326
321
308
305
306
266
486
425
291
288
292
300
310
331
348
358
356
333
315
309
308
313
314
314
324
338
340
327
316
320
319
244
656
321
304
303
311
319
338
351
363
374
352
328
317
308
309
314
311
324
330
342
318
305
305
302
238
568
375
287
284
285
294
301
321
332
341
332
316
295
288
288
293
296
296
299
321
323
297
291
297
300
199
656
310
279
280
288
297
310
333
344
347
333
316
300
295
296
301
303
305
301
309
329
325
308
309
312
305
288
611
302
291
290
293
301
318
332
343
347
335
310
298
294
294
295
298
298
305
300
299
308
328
314
308
305
306
263
509
413
298
289
293
297
310
325
336
348
352
334
307
303
302
296
301
299
304
308
299
305
307
324
325
306
309
308
305
293
598
304
290
295
297
310
318
339
356
361
348
328
307
305
308
306
314
316
318
320
318
333
346
330
325
328
329
248
643
357
314
315
320
332
338
361
370
376
376
355
335
332
327
333
336
336
337
334
335
360
350
331
332
332
326
351
612
317
308
313
316
323
342
359
368
371
357
330
315
312
312
310
315
316
316
315
318
341
335
315
311
308
302
263
639
295
279
279
279
289
298
316
322
326
311
285
262
262
257
258
257
258
256
259
277
277
257
253
253
252
160
640
266
239
242
248
260
271
296
312
323
323
299
282
288
292
293
295
306
304
313
332
340
321
326
325
325
237
659
343
325
320
332
337
355
380
394
396
397
368
349
348
342
345
348
349
355
371
376
351
346
342
342
263
659
385
327
325
332
331
348
360
375
376
371
351
336
323
330
327
333
335
340
364
354
331
321
327
331
238
661
316
311
304
300
319
327
334
338
348
338
310
306
298
302
301
305
312
326
321
295
291
293
297
208
653
315
267
257
266
278
290
297
315
319
318
302
297
297
305
311
316
324
348
345
311
305
307
310
201
663
376
289
282
284
289
300
309
323
333
321
317
296
297
302
297
296
296
300
299
321
301
285
283
284
230
414
590
248
234
255
260
283
279
296
305
333
292
273
269
274
268
271
280
283
263
236
328
308
306
357
354
331
552
552
327
324
320
323
342
350
361
381
390
380
367
344
340
349
296
353
362
353
382
375
356
346
347
342
396
623
310
313
323
333
355
369
384
386
394
382
368
352
346
347
349
348
359
375
361
344
343
339
318
458
467
329
324
321
327
339
346
358
358
355
347
327
295
300
312
302
291
312
309
290
280
288
284
217
557
320
281
257
275
285
297
294
309
311
307
293
281
278
279
276
279
291
300
296
292
285
290
269
415
436
293
284
294
303
310
322
339
344
340
338
318
308
307
306
312
325
338
315
306
309
312
280
446
450
303
300
312
316
326
338
345
356
351
345
324
311
314
318
324
345
342
327
321
327
321
236
648
347
314
304
314
320
338
340
357
362
357
338
319
320
318
329
349
348
328
322
322
320
242
643
349
305
304
317
318
338
349
362
357
351
325
307
304
297
304
326
324
306
295
295
301
195
662
336
287
274
284
287
296
308
324
325
321
295
284
278
277
278
301
298
272
264
272
259
175
617
289
242
242
250
261
274
289
298
307
300
289
274
277
280
285
288
309
318
305
299
303
306
240
605
378
301
297
303
320
333
351
366
369
370
354
343
340
338
343
349
377
373
353
344
337
355
242
663
333
324
323
331
334
343
358
366
370
355
337
326
327
327
323
327
346
343
325
317
318
314
264
661
305
298
298
305
314
322
336
344
351
336
311
308
308
307
304
307
313
335
314
301
304
302
236
590
382
287
282
290
294
302
316
334
339
336
319
297
303
307
311
307
322
314
318
318
302
302
302
288
379
556
299
291
289
297
309
320
339
346
348
338
315
305
309
314
310
311
318
336
340
314
314
314
311
268
649
307
292
297
304
316
330
339
351
358
343
324
312
314
315
318
320
320
334
348
327
319
317
323
227
643
344
301
298
309
313
330
345
350
364
348
327
303
297
294
299
306
310
328
334
310
304
306
304
216
651
316
291
290
292
300
308
326
335
336
332
305
294
297
299
304
308
312
332
328
304
298
298
296
219
660
292
282
284
289
298
307
324
335
336
331
308
296
301
300
305
309
324
338
317
307
306
308
219
660
364
299
300
302
309
317
337
352
358
355
336
321
314
313
314
318
320
341
341
322
317
314
313
242
658
310
303
305
309
316
328
348
356
350
345
320
304
306
305
308
307
319
335
323
309
306
308
279
445
445
293
292
298
305
320
345
342
336
345
340
320
301
299
303
308
313
325
326
332
308
318
338
288
397
487
312
312
301
316
327
346
360
373
358
346
329
315
309
315
311
320
349
332
319
314
309
310
232
638
310
294
292
298
311
320
338
343
344
336
319
298
303
302
304
308
328
335
310
300
300
303
216
653
334
291
286
294
299
312
329
344
341
341
316
298
296
294
298
305
321
330
304
297
298
300
202
658
328
282
280
287
295
305
322
337
344
334
312
295
293
288
290
294
308
329
313
298
303
304
267
469
459
290
285
284
289
301
323
342
348
347
331
306
304
301
302
302
309
316
340
323
314
306
318
293
423
539
314
314
309
303
333
335
357
370
363
357
326
315
310
303
318
313
331
345
330
320
319
321
286
461
470
310
306
300
312
329
345
367
376
375
352
332
326
324
325
326
337
348
367
343
326
324
323
284
532
459
313
299
308
313
324
341
354
366
365
345
321
314
310
310
311
318
337
349
324
314
312
315
249
611
401
295
291
297
299
311
321
344
349
341
316
297
290
289
290
290
291
303
320
304
291
285
285
253
450
477
268
257
265
269
282
297
322
332
331
314
284
278
276
281
281
284
287
300
317
295
288
288
289
211
606
365
274
271
276
285
294
318
335
345
345
321
303
285
288
288
293
294
300
328
323
303
304
308
304
258
646
298
293
296
299
314
323
353
354
358
342
324
315
305
309
310
322
327
347
344
327
314
309
314
211
660
305
290
284
294
302
310
319
335
335
325
318
296
307
300
306
308
322
343
340
308
299
301
293
219
661
276
279
277
280
287
300
313
317
320
312
299
291
291
289
297
306
320
346
324
299
296
288
288
335
654
280
277
286
295
302
313
339
347
350
343
323
322
324
326
331
325
338
367
348
336
325
320
316
376
662
288
279
244
316
322
308
340
369
374
380
357
348
356
347
395
392
367
341
349
357
370
349
355
335
354
225
663
291
304
290
278
352
352
336
391
389
437
373
355
364
358
356
347
337
347
353
368
340
332
329
324
200
663
333
301
273
225
337
303
313
342
360
341
319
318
297
302
300
309
311
341
349
327
321
313
319
210
663
333
277
255
259
302
282
328
347
363
358
323
288
300
314
300
289
290
316
327
300
295
292
285
195
654
278
257
248
248
259
287
265
250
271
274
251
235
258
268
299
316
294
299
278
281
282
291
182
622
370
280
292
303
294
323
336
345
330
344
333
303
294
309
300
285
314
313
307
280
279
324
197
600
418
326
311
311
317
334
352
360
371
370
358
333
333
335
329
328
339
330
308
308
300
299
231
592
306
284
286
293
304
317
334
341
347
347
330
306
302
302
316
333
330
309
311
308
305
287
573
319
302
301
319
316
331
353
360
367
367
344
332
321
327
338
354
330
308
311
307
278
460
439
303
295
300
307
318
330
339
348
341
337
317
312
308
321
339
337
318
302
307
306
233
656
329
302
296
304
304
327
340
350
359
344
334
321
320
321
341
371
345
324
325
321
296
467
520
315
305
308
315
319
336
352
359
353
339
322
316
317
321
342
353
331
315
311
309
212
661
337
293
289
293
299
312
327
341
345
339
314
301
298
298
308
330
318
298
293
296
267
447
498
280
275
276
283
298
315
334
339
336
318
296
290
294
296
302
316
333
311
301
301
307
203
660
323
287
290
291
303
317
337
349
358
347
327
307
305
306
311
313
314
333
343
324
314
317
315
239
658
311
292
289
295
301
315
329
340
343
327
297
279
272
271
273
275
292
304
285
270
266
263
166
641
276
245
247
253
260
274
294
309
310
301
276
263
261
263
266
275
294
314
297
288
291
293
201
658
324
289
290
298
310
325
342
361
367
360
335
316
314
313
320
323
329
353
355
335
330
333
316
404
585
321
316
319
322
337
352
373
384
385
365
342
331
331
333
337
340
355
375
361
344
344
341
258
660
396
329
323
325
332
346
363
376
381
373
345
321
315
313
312
313
315
327
337
323
309
303
303
215
652
338
285
286
286
291
306
325
339
344
338
311
289
285
286
286
289
299
320
314
295
293
298
269
435
466
284
281
286
292
306
321
341
353
354
332
308
298
302
302
304
310
326
338
317
309
309
313
215
660
326
299
300
304
311
325
347
360
367
360
333
312
308
310
311
315
318
330
348
331
315
317
316
242
632
373
305
302
308
316
326
344
360
366
359
338
314
305
303
301
305
305
306
327
325
305
300
304
294
337
552
292
279
280
285
294
309
328
338
338
324
297
284
282
283
282
286
288
303
321
305
291
293
296
222
598
349
284
281
285
297
306
325
344
352
350
322
300
293
293
293
297
299
301
312
331
315
304
302
305
228
609
358
292
289
296
304
318
335
351
358
357
335
309
304
305
310
312
313
316
316
322
348
339
325
325
327
278
551
442
315
313
320
330
335
352
368
379
377
358
335
322
322
322
323
324
327
325
325
327
348
354
331
329
328
320
339
624
319
309
311
321
327
341
357
374
376
365
341
324
315
321
320
315
321
321
318
323
345
335
323
321
319
276
525
423
308
310
308
319
329
341
361
368
368
354
324
318
311
321
313
320
314
315
339
348
318
313
310
307
219
658
314
292
295
301
304
319
337
350
355
346
325
305
304
301
306
310
309
314
337
335
309
303
302
301
258
656
289
278
279
282
292
304
322
336
341
326
302
287
284
289
287
292
293
303
324
305
291
290
288
232
553
411
272
261
267
272
284
304
319
331
326
306
280
270
270
272
271
276
274
281
304
305
284
282
281
281
222
654
281
270
267
277
286
303
326
341
348
339
313
292
293
296
301
306
308
313
316
319
332
353
335
329
331
332
243
662
392
318
311
317
324
334
349
369
377
377
352
328
315
317
317
317
319
319
321
322
324
332
351
332
324
326
324
231
660
373
309
307
311
316
330
346
364
376
373
352
326
316
316
316
318
321
320
323
321
331
350
341
330
326
325
319
342
627
315
309
312
319
327
339
356
372
377
367
337
318
314
312
314
315
317
318
319
318
324
349
333
319
320
321
271
545
425
307
303
306
315
327
341
362
368
372
356
333
309
308
311
310
313
317
319
320
347
337
320
317
320
309
356
589
306
301
305
306
318
335
350
365
363
350
322
303
297
297
296
298
297
295
295
318
310
290
283
282
279
203
650
274
255
253
254
263
274
289
305
309
300
272
249
249
249
250
254
255
257
259
271
290
273
268
268
275
212
547
376
269
268
276
284
299
316
338
352
357
339
314
303
306
309
312
319
323
324
326
342
355
335
330
330
333
244
660
384
319
315
321
330
340
355
371
383
383
360
331
325
326
322
325
327
329
331
333
336
353
355
336
334
332
336
238
660
340
318
315
322
329
336
354
371
377
372
349
324
310
312
313
313
313
317
319
314
322
339
342
323
319
324
324
252
648
320
305
312
308
322
334
353
361
371
362
337
311
304
305
306
306
305
303
305
321
331
306
294
292
290
229
547
355
271
268
274
280
293
300
323
334
331
321
293
282
281
281
285
288
292
298
322
327
303
296
297
295
197
660
321
287
291
298
306
316
345
352
363
361
337
313
307
308
308
312
309
313
329
338
315
312
324
316
266
598
449
322
318
313
322
329
353
377
379
384
363
333
318
326
320
325
329
329
334
351
358
338
328
334
332
239
660
355
310
305
311
322
332
349
367
374
372
350
329
320
325
330
325
332
334
330
335
356
348
333
327
329
330
257
662
316
307
302
309
310
331
349
369
371
366
338
311
304
310
306
309
309
310
315
323
343
323
317
319
317
262
583
466
297
286
288
300
308
326
347
358
357
337
307
288
286
284
288
289
287
287
292
298
318
295
285
286
282
221
553
351
260
255
262
269
277
295
313
319
323
307
281
269
269
271
275
280
283
278
292
314
293
282
282
283
280
312
613
278
272
272
283
290
301
326
338
342
334
306
295
279
295
293
300
306
303
315
316
352
338
324
324
334
325
291
662
312
308
306
305
324
337
394
400
391
384
360
338
325
325
326
326
332
334
329
340
366
362
341
336
336
333
241
661
311
303
309
315
312
342
350
363
382
357
326
308
301
296
313
299
276
292
286
318
307
286
303
287
307
214
659
324
289
288
308
303
328
337
367
362
375
335
310
314
310
322
310
316
337
317
350
343
323
330
335
342
227
662
353
304
325
329
331
340
365
385
382
382
350
324
312
326
316
318
326
318
327
352
324
312
316
309
292
396
582
285
297
280
287
292
311
332
349
337
330
291
284
276
281
277
295
295
292
314
314
285
276
278
276
207
660
303
290
297
306
304
317
314
319
314
303
289
276
268
278
289
301
311
328
350
320
313
311
317
310
381
625
313
310
316
327
324
337
348
355
349
333
313
321
326
338
337
342
354
371
359
330
312
307
293
158
663
271
262
263
260
272
280
287
308
314
286
258
268
287
283
324
310
326
351
355
310
302
328
371
293
601
401
255
228
231
208
222
231
271
244
340
339
333
344
366
349
361
363
353
355
402
347
354
340
313
182
636
303
245
236
255
267
319
261
397
351
387
403
402
415
411
388
382
385
381
400
383
364
363
330
328
341
647
283
301
280
304
318
307
358
368
356
361
369
366
351
397
383
383
359
409
389
382
380
371
354
332
662
324
306
281
261
262
279
310
340
365
368
347
313
286
276
282
303
336
342
341
349
352
349
293
628
347
315
304
303
303
309
325
332
338
345
333
306
296
286
290
302
316
305
285
284
276
278
219
591
289
268
278
277
285
298
312
322
329
333
319
300
292
287
290
311
315
293
282
277
279
261
355
488
276
269
279
286
295
313
327
337
335
330
306
281
286
284
294
320
321
297
292
293
294
209
636
327
286
285
295
301
316
329
342
347
345
332
309
303
308
312
332
338
317
306
306
309
268
529
435
307
304
310
319
325
345
362
369
373
360
335
323
325
327
345
359
339
322
325
322
307
416
550
310
304
307
317
325
340
353
364
365
353
329
315
314
317
325
343
341
319
310
316
313
239
659
318
303
301
309
322
335
350
366
372
369
346
329
322
327
328
349
352
330
319
317
321
233
660
347
303
306
316
312
332
327
369
366
372
343
315
310
313
319
340
343
332
314
315
310
237
608
371
291
283
287
300
315
323
335
342
339
331
302
296
299
300
325
334
309
297
292
291
223
580
369
278
276
278
285
299
310
324
329
326
309
289
285
284
285
304
330
319
298
296
288
268
405
524
276
269
270
280
291
306
325
336
340
328
307
293
295
299
306
329
336
318
307
305
308
204
661
314
288
288
295
305
324
350
366
372
366
325
308
299
294
299
309
338
333
314
301
302
306
261
658
274
285
274
285
285
299
296
336
324
308
299
279
295
289
304
304
333
312
298
297
291
243
474
455
279
270
271
275
285
308
313
314
330
315
300
304
300
304
314
346
352
323
314
302
316
232
661
286
290
289
287
297
311
322
327
325
311
311
297
298
295
306
317
341
325
292
269
262
236
210
659
210
213
209
224
232
229
253
251
278
273
212
309
271
287
326
302
332
318
326
312
292
291
260
442
611
266
273
279
287
267
288
290
321
327
347
335
344
349
359
384
384
381
384
403
391
377
376
384
319
662
579
338
324
321
327
342
355
372
375
374
365
339
319
341
322
342
357
373
381
348
351
355
345
425
652
331
329
331
336
340
339
340
338
330
332
304
306
318
319
325
322
341
347
324
322
316
319
245
662
299
304
291
290
292
301
316
328
328
334
319
305
312
303
317
317
341
342
320
313
311
305
196
662
304
283
275
279
294
306
321
331
333
330
319
307
305
307
308
304
324
338
318
298
296
293
191
662
319
276
272
277
288
296
312
318
329
330
310
301
299
301
305
305
319
335
320
302
303
298
235
651
439
293
287
293
302
308
328
339
340
341
337
319
311
316
318
321
334
353
326
312
313
312
226
661
412
303
291
302
304
321
335
348
346
353
337
320
315
320
315
321
328
350
329
317
318
311
248
632
455
297
292
296
305
316
331
340
347
345
332
315
306
304
303
310
323
335
311
304
304
302
204
661
322
291
291
295
313
320
340
345
349
347
333
315
313
316
317
325
347
335
313
307
305
297
369
590
301
289
294
299
308
324
339
346
347
329
302
289
290
290
295
316
319
296
286
286
285
183
659
306
267
267
272
284
294
317
329
333
327
306
286
286
285
288
294
320
314
294
290
293
291
273
627
292
277
280
290
299
313
333
344
346
333
306
293
297
295
298
306
329
336
313
306
306
308
211
660
327
293
295
300
311
325
342
356
364
359
333
311
308
312
311
314
322
346
346
325
322
322
322
255
659
322
306
307
312
324
338
356
370
374
365
343
318
321
318
324
323
318
330
348
346
329
321
323
292
468
489
310
298
302
312
323
345
360
373
372
359
328
315
310
318
316
317
333
355
340
312
312
310
283
440
511
296
287
292
297
309
323
342
351
347
329
300
290
286
286
291
293
312
324
303
287
287
285
210
601
353
271
263
273
282
292
313
332
342
341
319
292
286
288
290
298
298
308
335
323
304
304
306
298
367
593
299
291
292
301
310
330
348
365
369
353
326
314
310
310
310
314
320
335
350
330
319
319
318
232
659
368
300
292
298
306
310
326
344
356
349
322
296
287
287
290
291
291
302
324
309
294
291
291
273
397
532
276
272
280
286
294
312
331
344
348
330
301
297
289
294
296
303
327
338
320
310
307
310
225
649
370
294
292
294
310
322
344
359
366
362
336
313
306
310
312
315
323
343
351
329
318
319
321
249
647
409
307
301
309
310
323
339
358
372
368
344
318
309
307
310
309
309
313
341
328
315
310
314
313
274
649
306
298
298
303
316
327
344
357
364
348
331
308
308
317
313
312
318
323
335
342
325
319
321
320
225
660
329
302
303
305
316
332
346
361
370
364
344
316
311
311
314
317
316
338
348
323
319
313
314
267
557
415
302
299
301
311
319
338
357
364
366
341
319
305
304
305
309
315
327
345
322
312
307
311
294
385
557
300
295
297
302
312
327
343
358
354
340
313
297
296
292
302
303
305
316
336
321
309
305
306
278
446
482
296
291
295
302
314
330
346
356
351
343
318
306
304
309
315
316
318
339
340
320
311
308
309
212
661
319
295
293
295
308
320
335
351
355
346
324
307
304
302
308
309
317
329
350
323
312
308
307
291
416
574
294
287
292
299
309
320
342
350
352
336
310
300
301
306
302
308
317
329
345
322
311
309
312
263
580
496
294
288
294
302
315
332
342
359
359
343
320
307
311
308
310
310
311
317
335
336
314
311
315
310
201
662
311
289
290
296
301
315
333
348
355
349
325
301
297
296
297
298
298
301
305
316
302
292
291
288
266
422
513
276
268
269
275
285
299
316
330
332
320
298
287
293
296
296
294
296
301
323
327
302
298
295
297
184
662
325
287
287
291
302
313
331
349
355
359
338
318
312
314
316
319
320
324
338
352
329
320
320
318
266
572
434
311
306
309
314
325
340
355
363
364
350
325
319
318
321
324
325
326
331
354
337
324
321
324
309
383
626
308
303
306
309
320
335
349
359
363
354
329
314
317
316
316
312
315
326
340
316
308
306
302
263
474
440
286
275
281
278
288
301
312
316
318
302
282
262
259
259
258
259
259
284
271
253
248
248
247
191
577
253
237
241
249
256
272
294
310
316
313
288
278
273
279
284
292
297
323
323
302
299
304
309
213
658
345
305
307
314
325
336
355
372
382
377
355
337
329
333
333
336
342
362
365
347
340
340
342
277
621
439
328
323
328
334
346
360
377
384
385
366
342
336
334
331
334
335
339
366
347
337
331
333
335
270
656
325
314
316
316
328
343
361
369
378
365
340
320
317
311
313
315
312
330
334
333
317
318
315
309
340
567
302
301
300
302
318
332
352
364
355
353
318
308
297
297
299
303
302
313
322
307
297
298
294
265
484
439
284
279
281
291
298
315
323
333
335
326
305
296
293
302
298
309
326
330
326
308
310
305
311
297
657
293
290
290
298
305
316
332
344
347
336
316
309
314
316
317
326
336
361
346
322
314
311
311
186
663
309
294
290
296
302
310
322
335
340
338
320
302
304
300
295
295
297
304
323
303
285
277
276
264
336
658
244
230
240
240
249
262
275
282
288
279
266
243
218
209
249
273
239
288
290
279
275
256
262
224
484
486
257
257
263
285
290
297
276
358
358
367
338
367
338
334
333
338
352
358
376
385
339
352
359
291
661
521
342
321
293
322
362
375
363
404
418
386
356
358
344
347
342
362
372
390
350
368
353
365
323
509
542
312
318
235
329
332
362
406
387
386
371
359
340
333
322
320
310
348
346
339
340
340
338
271
567
411
304
292
298
305
321
336
346
348
350
338
311
300
295
293
295
314
324
310
301
297
299
272
420
454
287
281
285
288
300
310
323
327
333
325
306
293
296
297
302
317
327
305
297
298
300
265
483
412
298
294
294
303
317
329
340
347
349
338
321
312
311
311
318
340
328
314
311
311
313
225
639
326
296
295
296
303
314
326
330
338
328
312
289
281
277
277
292
298
284
271
268
271
237
439
371
258
253
256
263
271
288
300
305
310
298
275
266
265
266
283
304
295
277
277
277
276
284
561
281
276
275
283
299
310
331
342
347
331
316
302
303
306
312
340
337
321
312
312
313
224
659
330
308
311
313
326
339
356
367
370
367
346
329
332
329
338
352
369
349
337
332
338
304
498
538
324
317
319
325
336
353
372
373
376
358
331
323
323
324
327
346
355
342
326
327
329
305
451
558
310
306
308
318
326
340
359
369
363
348
322
310
309
309
312
312
318
329
325
315
314
316
313
300
641
306
297
300
303
313
327
345
355
360
344
318
301
303
303
303
306
311
323
332
319
317
313
314
237
622
392
299
290
294
300
312
328
345
351
348
328
297
292
291
289
291
292
293
294
309
311
297
292
298
294
282
623
292
277
279
289
295
311
326
343
351
338
316
297
297
291
293
301
306
331
323
305
305
309
305
256
640
306
295
300
309
314
335
355
364
370
359
338
317
309
310
315
316
330
345
335
321
323
316
306
375
599
308
295
296
303
319
331
347
360
353
340
314
308
307
301
302
317
337
337
320
307
304
303
200
661
347
285
284
286
293
309
322
339
348
342
319
304
301
302
304
308
323
350
342
318
311
311
307
285
661
296
292
292
301
312
327
347
359
362
351
325
313
319
312
317
322
329
340
358
341
327
330
333
264
615
500
318
313
320
330
345
363
380
392
388
371
343
333
330
332
328
331
332
341
341
328
314
314
313
198
661
319
283
280
282
291
300
319
334
338
331
303
284
274
276
275
278
279
280
309
303
287
279
279
280
191
660
281
263
261
265
277
291
308
330
341
333
305
288
283
282
284
289
293
297
299
324
321
308
307
309
310
245
658
310
294
298
305
316
333
350
366
372
368
343
320
312
315
314
319
323
324
324
332
342
336
329
329
327
231
661
347
307
306
308
317
330
349
366
370
370
346
325
313
315
316
321
321
323
327
334
342
326
324
326
320
217
661
358
301
298
301
312
322
342
358
366
360
338
314
305
306
311
309
314
313
315
326
331
319
314
314
312
239
640
408
299
294
298
303
315
333
352
358
360
340
312
302
305
302
306
310
312
314
315
332
331
315
307
311
308
216
662
307
289
287
286
295
306
323
338
348
338
316
288
282
283
285
286
286
285
285
288
305
299
290
285
286
280
324
600
276
267
267
276
283
300
316
333
339
333
303
285
284
286
286
294
297
299
297
303
325
318
309
310
311
301
372
599
302
296
297
307
317
329
350
364
370
353
328
312
311
313
314
318
322
323
325
334
346
334
328
327
328
262
613
434
317
309
314
321
333
348
368
378
379
360
332
319
322
324
322
324
324
324
326
345
343
326
323
322
322
226
660
330
303
303
310
314
326
341
358
366
360
335
309
301
302
298
301
298
301
298
317
314
296
292
293
292
197
656
298
270
269
273
279
294
312
327
334
331
306
281
278
277
279
283
286
287
295
314
302
289
290
292
289
294
610
294
282
287
291
305
317
337
356
361
353
331
310
309
310
313
317
318
320
336
350
327
323
327
323
284
532
447
316
319
325
331
339
358
377
380
386
368
346
322
324
323
327
329
331
355
361
334
324
323
308
269
541
404
304
300
293
308
309
326
334
345
335
321
307
289
289
286
288
289
297
316
297
276
280
276
263
326
538
243
238
238
250
254
257
271
269
280
277
258
261
259
261
274
277
304
318
294
277
279
287
259
492
463
291
292
291
293
294
302
301
316
322
310
305
314
314
331
326
349
366
358
343
318
326
325
235
663
494
289
293
299
302
333
328
355
354
358
355
330
344
329
342
318
316
336
371
340
221
347
359
351
344
663
329
324
324
337
362
337
345
376
383
398
352
346
342
318
311
333
320
359
359
308
415
371
334
320
560
634
324
309
343
328
340
338
340
345
359
363
337
330
339
340
339
337
333
337
344
316
290
280
282
210
577
345
269
270
266
275
289
303
316
326
334
332
309
290
287
290
293
296
320
310
290
290
286
286
268
603
291
278
278
284
295
306
317
326
329
326
310
292
287
284
283
285
302
305
280
274
274
275
186
621
308
261
260
265
273
283
298
307
316
316
305
287
277
278
278
285
305
309
283
279
281
283
216
579
346
276
276
281
291
298
316
330
336
340
328
312
304
304
309
316
335
335
316
310
312
314
228
661
352
309
311
315
323
338
351
365
369
370
355
338
332
332
334
346
362
342
330
332
335
324
403
572
324
317
320
329
334
350
367
373
377
367
344
330
330
326
337
356
345
328
325
324
324
268
652
321
305
305
309
319
329
343
357
365
355
331
313
309
308
313
332
331
312
306
308
305
216
656
330
293
293
297
306
314
329
344
350
347
325
304
297
296
301
315
329
308
296
298
298
261
473
418
285
278
283
291
307
319
337
341
349
341
314
300
298
299
312
328
318
298
296
303
304
303
582
296
294
298
304
320
332
347
357
361
350
326
306
302
304
318
338
337
317
308
309
307
255
657
305
293
297
303
311
328
340
348
351
340
314
296
294
295
298
324
324
300
293
294
293
189
660
310
280
277
282
291
305
321
334
339
334
309
290
288
289
294
313
325
306
294
294
296
214
642
355
289
288
291
305
317
333
349
358
359
334
314
311
311
308
316
343
334
314
311
314
312
309
638
310
295
298
304
317
334
351
363
365
356
328
314
310
310
313
319
343
332
317
313
314
309
334
608
307
295
302
308
319
331
351
364
365
353
324
309
311
307
309
314
321
341
330
314
314
314
296
425
524
302
296
301
306
316
332
347
359
359
346
319
304
302
299
304
304
309
314
336
318
308
308
306
259
532
425
295
290
294
304
314
327
344
355
358
337
315
303
299
302
302
306
312
311
319
341
326
319
318
319
239
596
372
298
300
308
319
336
340
355
366
369
349
324
309
306
312
322
319
320
342
346
326
321
320
320
236
659
384
311
308
308
318
333
355
367
378
372
356
324
313
314
310
315
315
326
347
331
312
306
306
280
434
562
289
282
290
297
306
322
338
353
350
332
309
299
297
296
296
296
302
327
323
301
295
296
299
229
660
295
283
281
288
297
313
330
345
349
343
317
307
300
303
305
310
317
339
333
313
311
311
301
327
645
297
295
292
294
313
323
343
356
358
343
314
304
301
304
307
314
331
340
312
298
298
300
214
659
359
289
283
287
293
303
320
334
340
340
322
299
296
301
303
309
325
339
314
300
300
296
259
510
520
287
279
290
295
304
322
336
353
350
333
312
301
298
305
301
321
328
308
295
304
306
236
598
357
301
290
299
298
314
325
345
351
351
332
307
298
302
298
309
313
342
328
305
313
309
308
286
647
302
296
298
309
316
332
353
367
371
360
341
322
316
317
321
328
354
353
327
312
330
321
230
661
358
308
302
311
320
329
349
361
364
362
334
323
309
313
314
313
326
351
322
308
315
307
298
395
562
301
280
292
295
308
325
341
345
350
336
307
296
298
291
301
302
321
323
306
299
302
300
219
586
356
280
272
282
288
295
313
328
330
325
305
278
259
268
264
275
269
282
307
282
277
273
293
241
453
423
251
256
257
241
269
283
302
332
316
281
261
256
278
266
274
276
273
295
323
285
284
273
286
225
605
390
289
283
282
286
305
321
339
352
353
329
316
311
316
317
324
334
334
353
358
333
335
330
330
241
663
332
310
315
320
326
344
363
380
400
383
328
319
323
327
328
338
319
330
350
360
328
332
333
329
232
663
329
310
308
315
323
337
358
367
376
363
341
331
320
325
324
325
332
321
321
349
343
328
326
325
317
328
628
309
307
300
308
313
324
348
356
367
346
322
301
301
297
304
308
307
312
316
339
321
312
320
318
277
511
474
306
299
300
310
318
339
357
368
366
354
328
311
307
312
310
310
315
342
331
309
304
300
299
213
657
286
271
270
273
279
288
303
316
311
305
279
269
259
258
265
269
278
295
297
265
258
257
263
159
660
264
250
245
256
264
273
287
304
315
308
292
281
275
277
276
287
303
323
317
291
280
291
295
187
662
289
275
281
286
294
307
320
334
343
345
333
320
320
327
333
342
356
374
348
319
305
311
316
259
664
297
310
310
313
323
334
344
355
368
362
344
342
337
343
340
343
355
373
374
346
333
333
335
203
665
372
309
303
308
319
327
345
357
368
367
343
325
334
327
325
328
317
325
335
361
318
306
301
298
229
663
495
271
262
268
286
284
291
311
318
317
327
300
256
311
311
294
305
325
330
346
355
316
307
288
287
231
662
259
264
254
243
299
331
326
362
385
376
352
334
328
327
312
304
315
313
320
353
331
327
319
327
305
436
566
251
312
284
326
359
369
370
359
374
381
350
333
315
321
321
321
325
343
357
330
324
325
323
258
605
418
309
307
310
320
330
336
342
349
354
347
326
306
303
301
298
300
316
319
292
284
284
283
209
605
319
265
259
263
270
281
290
297
305
309
300
278
267
266
261
263
276
294
277
265
265
266
255
328
493
273
262
268
278
290
304
317
329
337
338
318
306
306
305
307
320
341
324
312
311
313
304
362
570
315
306
309
316
328
342
356
366
369
364
339
324
324
325
334
352
355
331
327
326
326
249
641
394
316
312
318
325
338
352
364
371
368
352
329
322
321
324
339
354
334
320
318
319
304
411
540
309
302
304
307
321
329
342
354
355
342
316
306
307
304
317
336
332
309
303
309
307
227
657
321
294
296
298
310
325
340
351
355
348
322
307
305
302
305
321
334
311
300
299
302
243
551
383
292
286
290
297
311
329
348
352
350
334
311
303
303
301
304
325
335
316
309
310
310
223
656
351
310
302
307
315
327
345
361
370
372
341
321
316
313
318
323
346
346
327
318
313
319
219
659
343
297
292
299
306
315
335
347
355
351
327
305
302
299
303
304
321
334
319
302
305
302
261
486
426
288
280
286
292
300
312
329
339
335
314
285
275
272
268
274
276
294
298
276
267
263
261
181
571
314
248
249
250
256
270
286
303
314
314
291
273
267
266
271
276
281
290
313
301
286
285
282
275
338
523
285
283
282
292
302
321
343
353
364
352
332
317
319
315
327
323
337
356
349
332
330
334
325
408
549
336
325
328
335
340
356
374
375
378
365
338
332
327
331
328
346
341
357
353
341
326
337
344
251
652
381
323
325
345
331
334
357
372
372
369
350
336
315
320
315
324
318
351
352
336
313
326
325
259
656
332
303
308
292
301
323
328
345
342
334
308
297
295
286
290
306
305
310
309
289
297
295
301
447
453
289
281
280
285
291
311
328
325
348
320
299
283
301
289
325
298
302
307
311
315
294
303
238
561
379
283
291
304
305
315
334
328
356
360
330
303
289
298
310
307
317
312
322
304
313
261
298
218
645
336
303
292
296
307
321
338
337
354
378
327
307
300
307
314
320
334
355
327
316
328
333
234
660
344
313
322
309
317
343
358
365
372
359
339
338
323
319
322
315
339
343
324
334
335
316
282
577
426
319
302
301
325
341
326
361
359
370
339
318
303
303
294
322
325
330
325
320
314
314
248
572
395
296
283
292
317
307
341
337
367
348
338
308
307
302
289
301
318
308
297
295
293
292
200
640
314
287
284
277
284
311
317
321
327
310
287
284
269
277
271
295
310
295
287
283
275
285
286
568
278
260
258
262
287
296
313
325
333
306
293
281
274
282
288
302
318
311
288
293
294
265
481
469
287
292
283
295
306
324
345
345
348
336
304
293
297
302
311
322
336
319
319
326
320
275
546
453
318
291
292
312
313
328
335
357
351
330
302
296
297
307
294
297
334
313
318
312
316
291
210
659
325
297
303
308
319
329
340
361
363
357
334
312
311
313
299
304
306
319
315
312
304
321
319
292
658
322
315
318
325
340
356
371
391
388
379
356
327
335
334
340
354
354
363
345
340
344
341
299
662
333
328
325
330
337
348
374
381
363
355
333
326
312
322
325
323
341
343
319
315
317
321
214
661
353
297
294
290
301
315
324
344
346
336
312
298
301
295
291
296
316
321
304
292
298
295
216
661
336
286
277
286
289
311
324
339
339
341
315
304
291
284
295
291
324
317
308
297
308
304
206
661
313
287
285
291
298
317
331
369
342
344
331
312
304
301
300
316
314
316
301
299
309
300
211
660
312
299
292
295
298
312
335
338
348
337
309
299
295
289
287
299
309
318
296
289
282
294
181
659
301
257
260
256
262
273
304
308
304
297
283
263
270
259
264
284
291
275
267
253
270
237
427
437
266
258
265
262
283
291
318
332
348
322
293
290
292
300
314
326
328
310
313
312
306
221
661
379
306
296
308
313
338
348
371
373
379
353
340
326
341
336
343
356
368
344
341
330
330
245
662
408
321
313
315
331
341
362
383
393
382
353
334
328
337
326
331
348
356
331
325
329
327
224
661
355
308
302
307
319
329
354
353
360
365
346
321
321
317
318
319
346
343
334
311
316
313
222
660
346
291
291
290
296
305
323
331
334
329
306
287
284
283
281
275
284
301
281
267
263
263
232
453
434
256
246
252
254
264
276
289
315
307
286
268
250
250
255
249
257
288
283
268
263
267
260
188
658
280
265
263
274
283
302
312
330
327
323
307
302
297
310
323
318
350
359
330
328
321
334
237
662
327
312
314
316
314
322
345
361
380
359
337
343
346
340
340
349
372
380
353
341
341
347
233
664
394
322
313
325
331
339
355
361
376
376
358
335
345
332
334
345
343
365
365
339
340
341
325
243
664
291
298
292
293
293
307
318
334
337
344
321
328
307
303
308
311
325
350
335
314
309
318
305
179
664
273
278
286
272
284
291
280
324
331
316
270
318
327
314
328
373
374
394
372
380
442
399
320
287
663
305
315
300
303
308
318
332
335
385
339
342
298
309
285
322
287
315
381
377
373
312
310
283
460
514
300
278
272
277
274
316
305
305
328
310
317
227
324
258
316
333
376
340
426
368
371
325
293
472
658
307
357
202
194
268
333
279
352
261
250
276
276
311
257
310
190
300
232
248
333
291
261
124
639
303
242
241
256
251
269
306
316
341
318
306
297
271
261
258
276
278
304
293
267
262
270
212
484
354
282
279
289
296
308
323
338
353
364
354
334
315
318
317
326
346
345
323
322
322
325
322
549
339
330
331
341
350
363
376
382
385
389
375
354
347
345
351
368
368
347
336
336
336
256
654
355
317
316
321
326
336
350
354
355
353
337
320
314
309
313
333
330
308
297
297
297
217
637
316
284
284
292
301
309
323
335
332
335
318
303
297
296
310
328
320
297
291
292
289
287
582
297
287
288
298
310
324
340
350
354
344
326
315
312
319
336
349
328
318
323
322
260
579
393
315
314
314
329
335
347
359
373
364
362
340
331
329
335
354
355
337
334
328
315
368
557
315
312
308
315
329
345
348
364
357
353
325
318
311
314
338
349
321
304
315
307
215
657
313
280
305
298
302
319
340
338
339
331
319
306
292
297
329
336
322
296
300
311
228
605
341
286
267
281
295
305
330
328
347
328
312
305
297
294
314
328
340
301
304
314
272
473
518
287
284
283
295
298
325
341
359
348
336
312
307
299
313
333
331
313
313
305
292
386
568
297
283
290
294
303
322
331
335
347
322
309
288
293
296
309
326
315
297
300
299
208
658
316
285
288
294
299
318
335
343
348
340
311
297
296
297
300
316
326
313
305
306
301
292
608
302
290
291
300
308
321
343
352
351
339
317
305
308
310
310
320
333
327
314
310
309
250
565
380
295
289
289
297
306
317
331
341
337
318
289
279
282
281
282
287
300
301
276
280
280
216
561
327
266
263
272
275
291
310
326
335
333
315
295
290
292
299
300
321
336
327
311
313
312
227
660
328
300
297
304
305
322
340
361
365
354
340
322
321
323
337
347
371
376
357
353
356
346
451
631
345
339
346
344
360
371
387
393
389
368
341
333
329
332
332
340
362
356
327
320
311
292
442
544
295
284
287
291
307
319
337
343
346
326
300
296
293
294
304
307
334
341
319
314
313
315
277
659
318
307
307
304
313
325
343
360
362
349
320
305
306
302
308
305
310
333
322
306
303
306
255
540
414
287
282
282
289
300
315
334
347
347
327
301
298
293
294
297
298
299
321
321
304
299
298
294
350
588
295
286
290
294
304
320
345
356
370
349
324
310
304
311
311
312
313
319
344
338
319
317
317
286
471
484
304
296
300
310
319
340
356
364
364
352
323
315
312
312
315
320
319
328
353
337
318
317
317
234
652
376
303
293
299
309
318
339
352
361
355
335
313
304
301
306
305
310
313
337
336
315
309
307
305
247
660
299
287
286
293
302
316
336
347
354
341
316
296
297
300
298
303
304
303
317
336
315
304
309
305
205
660
308
286
284
287
297
310
330
347
354
349
324
300
295
296
297
300
302
303
312
333
313
306
304
303
213
655
355
283
283
288
293
304
323
339
346
346
318
298
290
292
293
295
297
296
300
320
326
307
304
306
301
230
659
295
285
281
287
298
309
332
343
352
345
321
302
302
305
304
306
310
307
321
339
320
314
311
316
213
660
348
300
299
303
311
318
341
361
364
364
338
320
307
306
311
316
314
323
340
343
325
313
316
317
229
660
321
300
302
311
317
330
346
357
365
357
331
315
301
310
311
311
312
320
339
323
306
304
306
251
534
427
283
272
275
278
292
303
321
329
332
311
286
279
278
277
282
285
295
316
311
288
287
285
282
295
637
278
270
273
281
291
307
326
345
352
335
317
299
299
304
305
306
310
318
345
329
315
315
317
269
557
465
305
298
303
309
317
331
350
363
365
345
318
312
316
317
319
323
324
328
354
334
325
324
324
253
637
421
312
303
310
312
328
344
368
373
375
349
323
310
314
307
316
310
314
334
340
321
308
314
307
222
660
294
280
278
294
305
315
336
344
348
340
318
307
305
298
303
311
317
330
350
326
310
305
306
261
530
468
291
290
292
295
302
328
329
345
340
314
304
304
296
304
301
311
321
342
315
301
304
298
264
494
436
280
275
282
292
298
311
329
334
335
322
311
308
311
312
319
327
339
358
330
320
316
313
288
519
550
300
290
302
310
312
322
335
348
348
343
330
324
315
324
320
326
329
348
358
332
317
316
310
188
663
319
286
288
286
303
301
316
337
340
347
330
312
308
305
306
313
319
318
320
327
355
320
319
312
308
205
662
360
286
279
291
300
300
319
329
339
347
329
333
310
318
317
314
321
310
333
318
362
351
324
306
327
314
396
660
290
297
303
309
309
326
326
342
360
337
338
328
330
331
314
330
316
334
331
361
337
320
321
305
213
663
318
298
285
304
298
312
324
326
338
342
325
336
318
317
325
321
321
324
342
356
307
320
302
313
271
662
297
292
298
298
303
319
328
338
345
340
340
310
339
321
318
333
340
342
365
323
315
316
311
205
662
251
319
298
298
313
316
307
330
345
338
313
309
289
302
306
293
258
316
356
301
305
342
319
293
648
293
293
281
278
289
313
318
332
328
340
333
311
304
307
309
312
340
322
307
272
323
305
239
661
310
303
295
309
297
305
312
337
333
356
342
326
322
327
327
334
353
347
325
321
321
303
421
450
321
310
311
320
328
340
355
363
376
369
341
313
310
307
323
336
311
296
293
293
262
472
381
287
285
287
295
302
311
318
324
335
327
304
289
287
288
306
312
286
274
275
274
193
593
304
263
266
267
275
284
297
303
313
315
301
287
287
284
295
314
311
292
286
289
284
308
529
286
277
280
291
304
318
332
339
338
338
326
313
311
322
345
342
319
313
315
314
268
635
323
303
310
313
324
337
347
358
355
351
335
327
321
330
357
363
337
323
323
315
235
659
346
315
313
311
311
332
357
357
358
355
341
320
316
328
341
345
330
323
315
321
227
659
357
297
294
301
305
325
332
341
353
349
317
305
312
311
311
339
330
313
306
309
254
590
400
303
291
292
306
313
334
346
352
350
323
312
304
300
305
309
322
337
326
314
327
313
237
603
375
304
301
308
307
320
334
358
360
355
325
304
309
311
303
311
315
341
333
326
320
321
308
390
565
314
306
305
311
319
337
352
365
368
347
322
313
315
313
318
318
338
347
333
316
318
317
236
655
320
303
308
312
322
334
357
363
366
354
331
313
310
311
306
311
320
343
334
316
306
303
213
647
328
278
283
287
295
312
334
352
356
351
325
306
309
313
316
325
351
356
335
320
318
313
276
656
310
295
300
306
313
337
354
368
366
343
310
299
293
291
290
294
305
322
308
286
280
274
156
660
287
255
259
260
266
283
300
314
319
310
276
262
263
267
269
275
277
284
313
308
289
282
285
226
552
399
277
270
278
288
303
324
344
357
355
332
307
300
300
306
308
311
316
317
323
350
348
327
327
329
259
633
457
311
305
311
317
331
350
370
380
380
356
326
319
320
320
321
324
324
326
328
332
339
372
349
337
334
333
304
662
317
312
313
316
327
338
354
376
370
359
324
318
322
303
308
299
305
299
309
308
323
332
333
296
316
287
270
659
276
273
281
279
295
306
339
347
357
353
326
315
319
319
320
319
326
324
325
331
332
364
353
338
337
337
240
662
372
323
320
325
333
343
364
380
388
390
362
331
321
320
318
320
318
319
320
318
342
329
316
310
308
231
619
362
287
281
279
287
301
313
329
340
348
321
284
275
262
268
271
282
289
287
300
308
305
285
291
287
215
595
337
279
274
283
294
303
328
340
355
354
336
312
300
301
299
307
303
310
322
336
312
301
300
298
213
653
297
282
264
288
288
303
323
330
335
320
297
277
272
279
274
279
283
283
303
307
284
282
283
283
259
643
275
270
265
281
287
302
325
341
342
342
309
298
300
303
297
304
306
312
336
335
318
313
316
313
316
656
312
307
312
322
333
345
365
380
383
368
344
335
337
341
342
341
341
344
347
370
361
342
340
340
311
509
577
327
317
321
324
334
349
368
379
384
366
341
328
326
325
326
333
329
328
338
357
331
324
316
321
223
660
339
287
283
290
304
303
323
337
349
346
327
311
300
301
302
302
315
310
320
332
311
302
302
311
217
659
306
283
284
281
288
298
307
326
316
315
303
282
284
280
290
292
296
306
325
304
281
280
269
235
502
387
255
248
255
254
248
267
273
280
284
271
249
244
257
285
299
309
319
327
301
278
272
284
229
529
459
260
256
263
276
275
298
330
347
341
329
299
278
265
321
324
335
322
372
374
343
353
342
345
220
663
354
310
309
289
308
306
310
300
383
390
373
366
389
382
391
331
365
338
364
372
364
342
319
339
321
460
652
308
315
337
327
275
372
328
390
405
394
360
336
346
333
331
323
332
336
347
337
335
345
327
225
662
362
300
298
302
293
286
283
288
292
335
323
276
346
311
294
288
287
311
316
292
277
273
274
175
620
321
280
281
287
285
295
322
329
332
334
322
298
281
283
278
283
290
312
303
286
289
292
264
462
406
294
290
300
303
317
332
346
352
359
355
337
325
327
324
327
348
361
346
329
331
330
286
545
420
328
323
328
335
344
357
369
376
379
362
344
334
332
334
339
355
353
332
325
324
324
251
643
331
308
307
312
320
329
345
355
357
354
331
312
306
307
310
330
330
303
300
299
300
231
632
311
289
289
293
303
314
328
336
342
336
313
303
291
294
301
322
319
298
291
294
292
259
625
293
283
285
288
300
313
332
343
346
337
312
303
298
305
318
340
322
306
310
314
271
517
415
304
302
307
314
323
342
356
361
361
342
315
315
312
323
344
346
325
318
313
313
241
657
314
295
297
302
312
324
345
354
354
345
321
306
308
308
323
339
326
306
304
307
260
551
397
301
294
295
302
311
327
341
348
346
320
300
290
291
300
321
312
293
288
291
277
364
492
282
271
274
279
289
303
319
328
329
311
288
282
283
283
292
317
307
292
289
289
264
449
419
285
284
290
296
309
325
342
352
353
338
313
305
310
312
318
322
340
342
323
320
322
310
394
531
317
307
311
314
328
342
361
370
370
360
332
322
322
322
324
325
335
353
355
326
325
326
308
397
506
309
313
324
334
349
369
379
385
388
371
345
335
330
335
335
340
349
364
350
329
331
327
264
613
373
303
307
309
317
329
340
358
361
352
332
313
305
310
307
312
317
333
336
312
301
298
300
220
655
292
275
274
275
282
293
312
324
329
316
292
271
272
269
270
275
279
303
295
278
276
275
266
318
552
266
259
259
267
282
299
317
332
336
317
292
284
282
284
290
293
295
304
328
319
299
302
300
247
559
392
291
286
293
301
314
330
351
360
359
337
317
309
310
313
319
320
323
330
347
355
334
329
331
333
290
655
329
321
320
326
341
355
373
387
387
383
351
337
331
330
330
338
330
331
343
355
336
322
321
318
224
655
323
292
286
290
297
311
326
336
338
331
311
287
281
280
284
288
284
285
296
319
299
286
286
289
214
605
335
272
271
276
286
300
319
337
349
350
329
305
301
301
303
311
309
324
346
344
323
319
323
323
234
660
318
301
305
310
321
333
356
364
370
362
334
315
310
311
319
324
330
330
347
353
335
324
322
327
217
662
341
310
308
312
322
334
351
370
378
371
346
324
328
325
321
321
329
326
334
354
346
326
319
321
293
482
515
304
297
297
304
316
324
342
359
352
349
304
281
281
283
280
282
289
297
316
316
297
286
284
285
200
660
273
266
261
267
275
289
308
326
325
320
299
277
274
280
269
273
279
276
298
296
284
279
288
290
222
660
283
274
279
292
306
316
340
356
363
357
325
305
301
305
307
310
318
333
339
315
310
313
311
221
656
326
298
297
301
309
324
343
356
361
353
329
305
304
306
307
310
316
338
337
316
311
311
312
293
613
308
299
302
313
323
338
355
368
372
361
335
325
319
319
326
328
343
360
342
331
329
331
272
581
403
318
312
315
324
335
347
370
374
376
355
339
324
322
319
327
335
350
350
330
323
320
316
230
657
320
300
297
302
310
318
333
339
343
336
313
294
287
287
289
291
308
318
295
280
275
273
195
624
302
262
260
267
273
278
297
308
318
313
297
284
287
283
289
296
314
325
308
296
298
299
236
602
371
293
286
299
300
319
329
348
354
352
336
317
314
317
318
323
329
358
343
326
326
326
307
447
551
314
307
310
317
327
340
356
367
373
350
325
315
316
315
315
318
316
321
342
336
325
321
316
313
353
582
301
293
294
294
300
313
333
344
348
336
313
296
289
290
295
295
294
297
305
314
307
299
302
299
229
609
338
285
285
287
297
305
327
341
347
355
328
310
304
302
305
308
313
311
320
328
335
323
324
326
315
352
577
316
301
313
312
327
327
352
360
369
353
327
314
315
310
311
322
314
326
327
340
326
321
321
322
258
623
372
308
304
305
317
320
344
355
362
363
341
316
310
313
316
315
316
322
326
339
328
322
314
315
310
280
657
288
278
280
284
297
308
330
339
341
331
297
281
275
279
286
282
285
295
307
300
282
280
276
275
185
654
273
253
253
257
266
274
295
310
316
310
293
277
275
279
281
299
301
310
323
318
314
314
313
312
233
661
313
303
300
312
323
344
339
358
352
352
338
320
326
322
334
337
350
362
369
337
326
324
324
291
536
562
315
308
322
342
350
363
361
364
360
338
329
326
326
323
324
330
338
359
374
346
332
330
323
237
662
499
285
286
288
299
310
320
332
341
346
327
313
307
307
312
309
311
320
329
343
330
310
300
305
291
434
662
271
274
287
284
298
302
328
339
344
331
236
329
323
304
310
319
337
328
332
373
346
311
303
307
288
268
663
275
272
277
293
294
321
318
284
336
359
327
337
352
336
317
329
313
309
310
340
303
296
298
298
235
615
469
279
278
276
286
296
305
330
324
342
333
282
287
303
305
293
303
298
319
319
291
280
282
279
190
660
278
279
281
286
304
318
337
354
357
360
338
321
314
311
306
307
319
337
313
306
304
305
250
565
384
300
299
304
314
326
344
354
363
367
356
330
321
317
317
321
341
348
327
319
319
322
250
618
390
319
318
326
330
341
356
371
374
377
365
344
336
338
338
345
364
364
338
334
337
334
259
657
336
315
314
319
326
338
355
366
370
365
341
320
318
314
318
333
335
313
307
308
305
210
655
323
290
286
294
304
314
332
345
346
345
321
303
296
299
308
327
325
304
298
295
296
259
608
297
286
285
292
303
316
334
344
348
339
316
301
295
298
312
326
315
299
296
296
254
496
405
289
287
289
297
309
322
338
348
350
332
307
295
292
300
323
325
304
298
297
298
261
602
299
284
287
295
302
321
338
354
356
344
322
306
304
303
308
327
330
314
305
308
309
221
657
321
298
300
303
314
329
344
361
363
359
332
308
295
299
298
313
321
320
304
309
315
273
529
416
311
303
310
319
332
347
357
360
358
339
324
309
315
311
328
338
332
307
306
302
254
523
423
286
279
284
292
305
317
334
341
335
317
295
295
292
292
304
331
319
299
288
283
251
448
497
273
257
255
254
261
279
293
294
289
269
253
236
237
234
249
267
265
243
231
228
206
385
398
223
213
225
234
247
258
271
281
278
273
266
272
270
272
295
319
326
308
292
287
300
234
661
284
290
299
307
314
329
340
349
350
343
336
331
335
336
340
348
364
366
352
353
362
367
275
663
308
316
321
335
356
370
384
395
395
395
369
356
357
356
360
362
360
363
361
361
362
369
363
359
344
293
663
610
330
336
319
333
338
338
324
362
366
371
359
319
335
312
236
328
327
334
317
336
355
350
341
353
337
344
339
238
663
500
293
256
261
269
294
277
250
383
341
354
305
381
309
355
312
303
314
319
307
311
302
268
279
257
292
298
294
313
198
635
307
276
280
285
334
343
348
366
351
362
339
313
303
309
284
298
280
284
284
288
306
323
307
320
284
298
206
652
330
278
308
313
319
248
316
345
352
372
343
328
315
324
325
324
292
292
286
298
286
294
297
287
438
495
328
342
345
359
365
374
386
389
388
374
339
332
326
330
325
323
337
350
323
323
319
324
229
591
315
283
284
285
295
308
323
332
338
338
318
301
297
298
302
304
316
326
304
295
303
300
245
586
318
306
308
316
333
355
359
374
381
367
348
335
327
330
321
337
355
343
317
317
305
270
492
403
299
296
295
305
323
329
338
346
345
332
310
298
296
298
312
328
324
307
304
308
296
393
502
304
299
295
304
311
328
343
350
352
337
315
301
299
307
321
337
329
300
300
304
259
492
405
286
278
280
288
304
317
332
340
339
326
313
306
303
308
339
345
324
314
309
308
223
659
337
300
293
297
307
319
338
350
355
352
333
323
304
311
318
350
350
341
323
329
325
238
661
315
293
293
293
306
318
330
349
356
344
332
320
327
325
335
359
347
325
316
308
264
529
598
297
289
297
303
303
316
332
338
338
319
300
298
302
301
319
331
303
297
295
299
184
663
294
282
279
285
290
296
311
317
319
304
270
254
253
261
268
289
277
255
254
248
187
539
343
227
224
233
247
263
285
300
314
317
302
287
289
299
314
333
336
311
303
303
303
241
660
300
295
296
305
317
334
357
370
373
360
335
322
319
319
326
345
364
334
323
324
321
214
661
344
304
307
312
322
333
356
368
377
365
341
320
318
318
319
325
332
349
344
327
325
326
297
473
538
313
304
307
315
322
340
359
370
372
349
323
311
309
311
315
315
324
332
336
320
316
318
319
270
657
312
304
302
306
316
331
350
360
369
354
325
308
305
305
308
310
322
341
333
315
309
309
286
442
513
295
289
290
296
309
322
342
352
353
333
304
296
292
294
294
295
299
321
322
301
295
293
287
257
629
284
271
273
278
287
300
320
338
342
328
301
282
281
283
286
287
292
295
300
327
311
299
300
299
221
633
362
292
289
293
304
314
333
351
362
362
342
319
307
308
309
311
315
315
317
324
350
340
324
323
325
258
605
421
310
305
311
317
329
344
364
374
377
358
328
317
315
316
318
320
323
325
341
354
331
323
325
322
229
661
329
306
305
311
316
330
349
367
375
368
341
318
313
308
307
310
313
314
317
340
343
322
316
318
314
303
639
310
301
303
310
316
329
352
369
373
367
332
313
310
311
311
309
311
328
342
325
314
312
316
246
602
388
300
295
301
305
315
331
349
360
359
336
309
300
296
297
299
301
308
323
315
302
302
296
286
291
551
274
263
267
270
278
294
315
329
333
319
297
272
276
271
278
286
309
317
290
281
280
277
196
636
311
269
267
277
284
295
318
338
345
342
324
302
299
302
304
309
322
348
340
319
313
313
311
265
658
304
295
299
301
308
327
344
362
363
353
328
312
312
311
315
320
326
349
339
319
318
316
304
377
597
307
297
303
309
317
333
353
369
375
358
329
314
312
317
316
319
326
347
345
327
319
315
318
259
658
314
305
304
311
316
331
348
365
368
359
331
310
308
308
312
312
313
321
345
333
323
322
322
298
450
522
311
304
307
316
323
336
356
372
377
356
326
319
301
310
302
312
312
312
341
325
318
318
319
289
480
447
319
306
316
319
332
349
367
376
372
358
329
320
316
316
326
324
323
328
340
344
321
316
317
312
312
609
304
297
302
309
319
337
353
367
362
354
331
308
305
303
305
309
310
310
306
315
324
317
311
313
318
229
660
337
297
290
297
298
313
326
351
359
356
330
305
294
293
297
296
299
301
303
307
305
307
310
315
314
318
318
227
661
339
298
297
296
302
310
326
345
356
357
336
310
303
300
303
309
313
315
314
316
319
317
327
321
310
312
314
223
656
356
292
285
291
292
300
316
332
340
324
309
270
265
260
258
273
273
273
272
277
285
271
266
266
268
167
652
295
260
261
269
279
292
314
332
346
342
319
294
281
285
285
293
293
294
306
317
308
300
298
297
287
368
591
287
277
280
289
294
315
337
352
357
343
314
296
296
296
299
302
308
321
337
324
312
311
312
294
433
579
304
299
301
308
320
337
357
371
378
364
333
324
321
326
324
329
331
332
330
334
358
353
337
333
334
330
295
661
321
309
311
320
324
343
358
379
385
375
347
325
319
317
319
318
323
320
325
334
351
344
333
333
329
301
469
502
318
314
317
327
339
359
369
380
381
362
337
323
319
318
320
330
324
333
343
341
321
327
326
327
277
659
314
306
302
313
318
332
346
358
363
350
331
315
307
305
306
312
319
337
332
309
303
305
301
217
652
343
277
274
280
278
291
314
329
338
335
310
295
283
286
285
296
300
322
322
301
303
303
299
204
661
328
292
313
274
271
297
318
347
338
359
314
291
286
303
281
297
295
316
315
289
289
289
290
231
662
289
268
278
279
291
305
329
346
361
339
306
299
302
302
306
311
313
321
322
347
329
324
328
318
280
539
624
305
295
299
310
318
335
347
372
375
354
333
311
313
320
315
319
317
324
326
318
342
332
329
326
327
299
482
645
300
298
293
302
310
326
346
358
366
350
321
308
306
306
310
312
307
310
320
336
326
312
313
310
241
623
498
299
286
293
300
312
323
341
357
356
337
307
298
299
299
299
301
304
310
316
330
307
296
300
290
169
662
318
265
265
268
267
278
295
313
313
311
280
254
253
245
246
247
244
246
264
272
253
251
254
253
195
516
388
247
240
245
255
269
289
315
324
329
310
286
274
273
276
285
278
294
311
319
303
303
318
312
225
659
326
297
300
306
317
334
347
371
369
365
349
337
326
330
326
339
339
368
359
337
328
331
331
237
662
351
318
324
324
338
344
362
368
373
369
350
333
332
309
332
346
351
365
353
346
336
328
295
524
533
316
310
317
324
322
335
357
364
368
346
339
322
323
320
337
342
363
343
324
321
321
308
432
613
307
308
311
308
321
334
350
357
359
342
323
315
318
316
319
329
351
335
314
314
309
304
348
658
309
296
300
306
311
321
342
352
359
341
329
318
315
322
318
326
344
337
306
298
308
306
204
661
320
290
275
292
285
305
325
349
347
322
293
289
284
291
282
295
294
311
319
294
292
303
303
177
662
331
279
273
284
288
302
323
337
340
330
303
278
275
275
272
267
271
270
280
280
269
274
268
270
246
646
257
243
239
244
252
267
293
301
310
302
273
258
262
264
269
272
279
291
297
286
285
293
295
204
661
305
291
289
303
310
327
349
365
377
368
342
319
322
323
329
326
334
351
348
336
336
334
337
256
659
411
323
316
320
330
343
358
369
381
380
356
334
324
328
328
326
335
353
349
326
342
331
333
240
661
337
311
309
307
323
333
359
364
371
363
334
320
310
308
317
328
351
338
314
308
313
308
248
656
307
287
287
297
306
313
332
334
333
322
303
289
283
293
286
302
318
300
288
274
276
257
369
534
261
244
245
251
268
280
291
301
308
288
270
267
273
268
286
312
313
291
285
280
283
185
662
274
270
273
278
288
307
326
338
345
334
317
306
307
311
321
343
353
323
321
329
332
264
661
497
311
308
313
320
331
344
365
375
371
357
347
342
349
362
375
379
356
335
334
336
283
661
639
301
313
309
318
323
352
337
365
365
340
342
306
275
327
345
343
337
331
316
308
333
323
663
294
293
290
289
302
299
328
331
341
278
367
341
328
342
356
370
357
340
338
326
325
213
663
319
298
298
303
313
312
255
379
328
365
330
328
356
316
322
323
333
311
290
284
288
235
627
292
274
286
302
281
287
303
252
320
312
324
323
304
293
282
307
296
299
297
285
238
414
500
299
292
294
298
316
330
336
343
350
348
326
313
311
313
325
332
314
307
302
298
217
634
320
278
283
268
284
292
297
318
329
326
293
254
278
299
330
327
315
303
295
292
261
483
432
299
294
299
313
330
347
358
364
358
345
325
305
301
306
324
326
276
276
313
274
288
568
238
301
279
300
322
380
358
361
355
350
331
318
318
323
336
339
320
320
330
335
258
659
319
304
301
301
320
329
347
359
363
353
338
316
315
320
336
335
312
312
310
302
373
495
304
294
297
306
317
333
345
351
358
339
317
309
309
322
340
316
299
297
299
221
591
348
282
277
283
292
306
324
330
331
320
306
290
286
288
315
313
291
284
283
282
232
630
289
270
268
275
283
298
312
324
320
317
296
290
292
306
328
322
297
293
295
260
479
464
285
276
281
287
302
321
