343
353
372
360
364
359
359
325
223
664
330
322
313
312
310
313
322
343
366
383
378
348
351
351
351
346
350
357
374
370
370
370
366
368
97
664
517
331
323
323
321
318
322
341
358
382
383
358
350
365
358
355
352
360
366
382
378
372
380
376
373
107
663
459
335
321
323
319
313
316
332
352
375
371
342
333
340
336
333
327
333
342
352
354
340
350
347
349
177
659
601
312
297
297
299
297
301
317
340
363
373
349
323
328
330
325
326
330
340
354
351
349
345
348
310
192
664
309
305
301
297
297
298
312
330
351
372
364
345
347
354
349
350
354
365
377
365
370
369
370
188
662
660
322
321
318
314
313
316
332
350
373
381
359
346
356
354
353
349
358
376
372
370
370
369
374
91
664
450
326
319
321
317
315
319
340
362
379
379
352
350
361
359
354
356
363
367
386
371
379
377
371
276
533
661
323
326
322
320
316
316
330
345
368
381
358
336
346
346
341
335
340
347
350
363
351
354
352
351
252
467
659
306
304
301
303
297
302
317
340
361
376
354
323
326
326
321
326
328
337
353
348
345
345
343
338
53
663
377
306
291
290
286
289
299
315
338
358
359
334
334
339
339
340
343
351
374
362
366
363
362
314
296
663
328
322
314
315
314
314
325
344
367
382
369
345
353
354
350
351
355
367
380
366
369
377
369
181
663
658
319
318
320
319
315
319
335
354
377
387
360
346
357
356
348
352
359
363
380
370
373
370
374
249
583
660
326
324
319
319
320
316
335
353
372
389
364
344
350
353
347
347
348
357
358
369
354
364
353
357
140
663
529
316
310
305
300
300
304
322
344
366
369
337
314
322
322
319
320
326
338
346
340
342
341
339
167
662
633
304
298
293
293
295
299
315
332
353
369
347
328
340
337
337
340
345
366
358
366
366
358
333
203
663
333
321
314
314
310
313
323
346
365
385
371
349
348
354
352
349
352
371
368
369
368
365
369
94
663
423
328
316
318
315
316
322
342
364
384
376
351
349
352
349
348
351
353
370
368
368
366
364
359
137
663
355
324
317
316
311
312
320
341
364
384
374
345
341
348
345
340
345
351
362
365
378
359
366
359
357
175
662
576
326
318
315
316
311
315
331
353
375
382
355
332
337
337
333
331
336
344
356
346
349
348
348
344
83
663
339
316
311
304
299
303
316
338
364
384
379
344
329
329
327
323
328
334
350
345
347
347
344
295
263
662
303
306
300
300
298
303
317
338
359
377
367
342
341
345
345
343
345
367
361
365
365
367
343
165
663
339
321
315
315
315
313
325
347
366
384
373
344
346
348
347
345
346
367
359
368
366
366
320
323
662
322
321
313
315
311
311
325
347
368
382
368
340
342
347
342
339
345
361
357
359
360
364
348
163
663
333
320
316
311
312
312
321
340
363
383
372
345
339
348
339
334
337
347
357
348
351
348
352
120
663
493
317
307
304
302
301
310
330
353
377
377
342
328
330
330
326
330
345
348
348
354
352
353
100
663
556
313
304
301
300
300
306
319
344
364
370
346
335
341
340
339
343
364
356
365
363
361
300
367
663
316
321
314
314
313
312
325
347
370
385
367
345
351
353
349
350
358
372
360
372
371
373
195
663
659
325
320
316
316
314
317
330
351
375
385
357
341
350
344
342
342
360
364
365
365
367
367
100
663
453
331
319
317
312
309
315
335
354
374
372
345
336
342
338
332
336
341
352
342
350
343
341
170
661
565
306
297
297
296
288
296
315
339
363
371
342
320
328
322
320
327
341
346
342
350
350
353
76
663
514
311
300
300
298
301
304
322
347
372
376
349
337
346
341
341
348
371
366
366
368
368
318
309
663
331
332
323
323
319
319
331
353
379
396
382
354
360
359
358
358
364
384
376
381
378
378
248
632
661
329
329
326
320
319
320
336
357
378
388
365
348
349
348
347
349
350
372
371
364
368
367
358
131
663
354
324
320
317
313
318
324
341
367
390
379
349
345
342
342
337
340
349
362
357
362
357
355
282
411
660
317
315
307
308
308
310
323
347
373
388
367
335
335
335
324
331
336
359
344
351
348
352
224
569
660
308
303
295
294
297
296
311
333
356
371
355
335
342
338
338
341
363
361
364
364
364
353
116
664
378
327
324
319
316
318
322
340
368
386
374
355
351
354
352
354
368
375
367
373
370
370
96
663
552
333
322
318
317
315
324
338
361
382
380
352
344
351
344
341
350
363
356
368
373
364
160
663
610
326
320
314
312
310
313
331
355
377
380
353
340
340
338
336
335
353
353
357
357
362
327
277
662
320
320
313
310
309
310
326
349
368
389
365
331
333
331
323
321
342
339
345
346
346
333
135
663
322
309
301
300
296
295
307
328
353
369
363
325
327
327
323
323
347
344
347
351
350
312
238
663
309
309
302
300
298
295
307
326
345
363
354
334
341
343
339
348
359
356
362
364
362
149
663
656
321
319
311
312
311
311
327
351
375
375
355
351
355
350
350
366
372
371
378
376
366
142
664
393
331
324
318
314
313
323
340
364
377
367
344
350
352
347
346
366
365
367
371
370
323
323
663
324
318
311
311
306
309
325
345
368
380
359
340
340
341
336
337
345
362
356
358
361
362
182
663
640
311
308
305
303
305
311
327
354
377
381
356
339
339
337
336
338
348
359
358
357
356
354
216
622
642
315
311
305
302
300
307
321
345
363
376
344
320
324
323
319
323
331
345
331
342
336
340
67
663
481
300
294
288
286
283
291
307
325
352
348
330
321
327
320
321
326
343
343
341
344
340
239
512
662
298
303
296
301
299
301
316
339
362
382
360
347
350
351
352
352
371
365
373
373
375
171
664
662
325
323
323
320
317
325
340
363
381
390
367
352
357
349
345
341
362
361
357
360
359
322
334
663
318
310
301
301
298
300
316
329
357
382
361
337
342
340
334
331
342
362
352
360
356
353
248
528
662
299
292
284
286
282
293
328
316
341
355
355
348
336
335
335
347
352
369
373
367
369
373
284
494
645
343
344
338
340
324
338
344
365
386
395
375
349
348
347
337
338
355
349
353
355
350
279
372
661
316
314
311
305
298
300
312
329
356
366
359
334
335
330
332
336
349
346
347
347
355
130
663
616
319
312
310
309
317
305
322
345
363
375
366
349
351
352
341
353
359
351
360
359
349
68
664
420
314
302
303
297
295
309
321
337
356
361
344
334
343
338
339
354
352
348
352
350
251
548
662
305
310
308
303
300
303
314
334
359
374
365
352
359
358
356
366
371
363
371
370
363
96
664
420
322
313
312
311
309
317
336
357
379
374
347
349
350
348
354
361
357
365
367
365
76
664
632
319
310
304
306
305
311
332
356
378
376
349
347
350
348
346
361
368
363
366
368
360
139
664
391
320
312
307
304
307
316
337
361
375
362
337
339
338
330
329
343
356
345
350
349
348
46
664
510
305
293
292
289
294
301
317
340
356
358
338
332
330
329
328
335
357
348
352
347
347
156
664
660
307
304
301
303
301
307
324
348
374
380
361
348
351
349
348
350
374
369
372
371
374
295
479
663
330
327
323
321
316
320
337
361
384
396
376
355
356
354
349
352
362
373
380
367
373
372
368
84
664
570
322
314
310
306
302
313
334
353
380
381
348
338
339
337
336
342
352
359
369
358
363
359
361
186
662
652
318
312
309
307
299
307
326
350
376
381
355
332
331
325
320
318
330
336
344
348
344
343
340
339
232
501
661
293
296
291
287
287
294
307
335
361
377
361
328
325
321
319
324
330
338
355
340
349
347
346
165
663
661
299
297
296
299
302
307
326
348
371
387
366
345
348
343
341
345
353
362
372
359
364
359
357
79
664
594
317
305
305
301
299
307
327
351
371
372
348
338
340
336
334
337
346
358
364
358
362
361
358
107
664
627
318
310
308
307
306
311
331
355
382
389
362
348
353
348
346
348
356
363
367
378
361
368
364
364
221
659
661
313
316
311
308
305
311
327
353
378
395
371
347
347
346
339
340
349
355
359
365
374
365
362
360
360
330
234
663
316
311
308
306
303
304
318
342
371
394
380
344
331
333
327
326
329
338
344
351
358
356
343
344
340
339
45
663
423
302
292
289
289
291
297
319
346
372
375
343
326
325
322
323
326
335
343
359
353
347
348
345
344
48
663
438
311
304
305
304
304
315
336
366
392
389
361
352
354
351
348
354
359
370
388
383
379
379
379
371
120
665
445
333
323
321
320
319
333
353
379
402
396
365
355
357
352
347
352
359
365
370
377
363
366
365
361
154
663
653
311
310
310
307
302
306
328
356
380
391
368
344
352
346
341
341
349
355
361
366
367
354
358
355
353
115
663
585
310
300
298
295
295
299
320
343
369
377
346
322
322
320
316
318
325
332
351
343
338
338
335
323
74
664
346
291
283
285
285
284
298
318
343
365
363
339
335
341
338
336
343
351
366
365
360
359
361
363
64
664
589
316
310
309
308
307
314
333
363
384
381
352
346
347
344
342
342
350
366
367
359
361
360
359
73
664
594
308
302
303
301
301
308
329
353
376
375
346
334
343
342
340
342
345
355
372
365
362
360
360
357
82
664
427
312
304
305
302
301
313
335
361
384
376
343
334
341
341
341
340
346
358
365
357
362
354
361
266
482
661
310
309
301
297
294
292
302
314
335
348
325
303
305
307
308
312
324
346
347
342
347
351
348
67
664
545
291
278
274
279
281
286
303
321
335
342
333
326
322
308
308
312
333
319
316
311
310
284
278
663
269
273
266
266
271
262
265
289
310
336
361
365
387
391
404
410
419
430
398
395
387
374
168
664
485
374
332
381
381
386
419
427
442
457
471
450
438
429
425
424
427
429
429
380
383
383
376
124
663
446
283
294
313
290
340
341
356
352
376
378
367
345
349
343
326
328
346
346
333
336
338
341
102
661
334
311
286
278
284
250
283
307
287
342
363
341
385
351
345
345
355
357
321
337
358
333
174
618
406
301
292
286
287
284
295
317
338
362
365
311
308
314
319
323
333
327
339
346
355
356
130
662
424
336
321
319
320
335
330
362
390
410
411
366
342
333
335
341
358
356
357
358
356
329
205
662
317
317
314
308
316
311
329
354
388
406
387
346
340
334
336
335
346
343
352
352
353
154
663
656
313
312
312
312
314
326
351
378
400
406
373
359
358
353
355
372
372
375
377
376
368
115
664
437
323
319
318
318
319
331
357
377
393
384
354
350
348
343
356
365
360
367
368
370
105
663
626
314
307
300
305
309
307
333
356
369
367
338
328
331
331
333
340
335
344
344
349
111
663
610
297
283
279
279
275
285
298
324
350
350
333
341
340
339
344
362
354
358
359
355
105
664
596
313
310
307
304
303
314
328
357
382
375
351
347
356
346
350
357
350
356
355
384
142
664
470
305
295
296
280
276
306
272
294
285
279
248
279
284
257
282
283
269
275
282
281
44
662
333
299
301
295
304
310
296
325
344
364
389
368
387
391
387
398
422
425
437
425
421
208
663
624
368
374
387
360
340
359
368
401
409
417
369
379
384
374
373
392
383
397
404
397
245
662
655
352
343
337
328
326
328
341
362
385
383
355
353
354
349
344
364
359
364
361
361
133
663
606
322
315
310
307
307
310
331
354
380
372
345
341
344
338
336
357
354
359
363
361
159
663
652
316
313
310
313
304
293
316
340
368
367
333
337
332
333
342
347
363
345
356
345
226
618
660
299
306
302
291
297
300
314
343
367
367
344
334
340
333
331
350
354
354
357
359
245
572
651
326
322
317
315
314
309
322
341
362
364
336
327
337
330
325
343
346
347
349
350
203
649
609
318
311
307
301
303
305
317
344
368
365
335
329
330
326
327
351
347
347
353
349
196
656
656
314
310
310
306
310
314
332
351
376
379
356
351
347
346
348
365
371
367
373
376
339
282
663
335
327
321
323
320
321
336
358
381
394
372
349
355
352
349
350
371
367
370
373
372
114
663
568
327
321
315
313
308
317
339
363
380
376
344
345
348
343
344
350
368
363
368
368
366
105
664
494
325
317
318
310
318
325
345
372
391
380
346
343
344
342
341
349
368
366
362
368
363
309
374
661
320
324
320
316
317
318
332
352
375
382
353
332
334
333
329
332
344
362
359
356
355
354
303
333
661
314
317
312
316
306
311
324
352
369
385
343
326
328
320
324
323
335
351
342
347
346
339
168
662
588
307
298
296
293
290
294
310
335
359
358
334
329
334
330
332
340
363
361
361
360
359
266
470
662
317
317
316
312
315
315
329
350
373
381
364
352
357
352
351
351
374
375
370
370
373
320
356
662
325
349
302
309
310
307
320
340
359
368
357
343
347
352
344
347
354
372
362
368
368
367
207
661
628
333
325
324
322
319
319
337
350
369
372
348
346
357
351
350
352
359
374
365
367
365
363
187
661
556
322
312
305
307
299
305
322
343
358
354
324
321
322
319
315
321
338
336
334
333
335
304
188
662
301
300
299
298
297
296
303
322
345
353
346
336
342
347
340
345
368
369
365
365
366
353
150
663
348
321
313
314
310
306
316
329
353
369
358
350
354
358
354
354
369
378
371
373
373
367
95
663
434
332
327
319
310
305
307
321
339
360
349
336
343
350
347
347
352
358
377
369
369
364
367
214
662
660
324
323
319
317
318
318
334
354
374
367
348
342
348
356
345
341
350
356
366
363
359
356
353
287
376
660
305
307
303
302
300
301
313
334
356
357
333
322
331
329
325
330
337
343
349
363
357
356
348
350
189
660
621
316
308
303
304
305
308
324
348
366
368
345
336
340
337
336
339
349
356
368
358
363
359
360
106
664
573
324
311
311
308
307
316
334
354
379
372
351
350
353
353
353
356
363
381
376
371
369
367
357
134
664
380
319
314
310
309
310
318
338
359
373
357
341
351
350
348
348
359
369
369
374
385
370
375
366
366
143
664
628
319
313
310
312
306
313
328
356
372
371
343
337
344
342
340
341
348
358
358
365
375
360
365
357
355
200
660
637
314
311
314
308
310
315
328
349
371
377
349
330
334
337
330
333
339
347
349
353
359
366
355
351
348
345
231
545
642
312
310
311
309
311
314
330
354
376
386
359
334
336
338
333
335
344
353
354
361
368
374
356
361
355
349
94
663
356
320
315
313
314
314
324
350
381
400
386
344
335
337
336
333
341
345
353
359
366
368
357
358
354
351
102
663
347
320
313
316
314
316
323
351
376
395
380
348
342
350
345
341
346
350
359
370
368
365
368
362
361
112
663
370
329
323
324
324
320
327
350
372
389
376
350
347
352
348
342
350
355
359
364
376
367
362
363
358
327
251
661
317
318
315
312
309
311
323
352
375
385
364
326
326
329
323
324
326
332
339
346
352
343
341
340
336
206
578
655
294
299
296
301
298
306
331
354
380
389
362
336
338
337
333
336
346
354
358
370
359
365
365
367
148
662
598
323
318
321
321
320
318
336
357
383
383
355
350
358
355
352
350
356
363
377
371
366
363
360
356
97
663
356
319
308
309
306
304
312
335
354
374
359
325
324
332
327
323
332
334
342
355
350
347
345
344
252
456
662
299
299
295
296
299
299
314
332
357
362
344
325
334
334
332
335
341
355
369
358
361
362
362
135
663
625
317
316
312
317
315
317
334
358
377
373
350
347
357
354
350
354
360
367
381
363
368
372
360
199
663
661
314
312
307
313
309
313
329
351
378
377
354
345
355
355
353
352
357
368
374
387
379
375
375
376
320
387
663
328
332
328
327
326
325
335
353
376
385
364
344
352
356
351
346
347
353
366
369
378
360
360
355
355
87
663
436
315
306
306
301
302
308
327
349
369
361
328
319
328
325
319
322
333
337
340
346
352
347
337
335
335
288
256
663
299
300
297
299
302
307
317
347
368
385
371
341
342
344
341
343
345
351
361
373
370
361
366
360
362
95
664
406
324
317
314
313
314
325
346
370
388
376
348
346
352
349
341
344
353
356
362
373
377
361
361
361
357
95
663
387
321
316
312
313
314
320
337
364
383
375
340
337
341
339
337
335
344
352
359
365
354
354
353
351
106
663
533
315
305
304
303
301
310
325
350
368
369
336
329
334
335
329
333
336
349
365
355
354
354
352
338
125
663
332
312
303
307
306
310
317
341
366
382
368
343
346
346
343
340
345
349
356
365
374
357
362
358
357
107
664
561
317
310
314
312
311
314
334
360
381
379
350
343
351
349
343
346
352
357
363
370
380
367
363
362
357
240
584
659
318
321
320
321
319
317
332
355
378
390
358
336
343
347
339
337
339
346
351
363
360
353
351
347
343
80
663
346
312
302
301
301
301
308
334
357
381
367
330
329
335
328
325
330
336
345
359
348
351
348
348
244
504
661
306
310
308
309
309
314
334
353
378
386
367
340
349
350
345
344
351
365
370
361
368
366
362
133
663
576
325
321
320
318
313
320
336
360
381
377
348
340
349
345
342
343
350
366
364
360
363
360
361
95
664
392
326
319
316
316
314
320
340
365
380
367
338
340
350
341
338
342
344
354
368
364
358
356
355
345
153
662
318
311
308
309
308
309
318
340
365
378
359
328
332
339
334
332
339
344
355
366
355
362
359
360
166
661
511
321
311
313
313
311
316
335
361
384
379
341
327
334
334
325
330
332
340
352
342
343
345
341
210
566
642
305
301
300
300
296
303
322
346
368
373
351
331
334
336
334
337
346
361
354
357
359
357
289
364
662
313
314
311
315
312
313
330
355
377
386
361
347
353
352
349
348
355
363
377
364
368
367
365
206
662
658
321
321
316
317
315
318
332
356
380
379
353
343
352
349
346
346
356
361
367
372
371
370
372
369
369
151
663
590
335
332
330
328
322
327
341
362
384
385
356
342
350
351
343
344
348
359
362
371
367
368
363
361
321
282
662
319
325
321
321
318
316
322
346
372
388
364
332
339
342
337
334
339
347
353
365
350
357
354
350
206
634
615
316
313
308
310
305
310
331
356
378
383
350
328
335
331
328
327
335
348
354
345
348
346
347
104
664
546
308
302
301
299
298
307
326
350
376
374
345
338
341
341
341
340
347
366
357
361
361
360
287
396
663
314
314
311
314
311
310
324
349
371
381
360
344
347
351
347
346
354
359
372
361
367
366
363
223
655
657
319
320
320
318
312
313
328
350
373
377
353
340
349
351
348
343
353
360
373
367
371
366
369
315
356
662
323
326
320
321
314
314
325
351
369
382
354
328
337
338
333
330
338
341
348
350
349
347
348
347
172
661
602
308
298
294
298
297
302
315
342
363
365
336
321
324
323
320
321
331
336
336
341
341
347
345
249
453
662
306
307
305
306
304
310
325
346
374
384
363
349
350
354
349
349
353
369
367
368
370
370
372
90
664
539
329
321
318
319
318
322
340
365
381
375
351
348
356
350
348
348
358
370
371
367
367
366
368
91
663
478
329
318
319
316
315
318
335
361
379
370
343
343
350
347
341
344
350
357
361
360
367
374
369
368
118
663
477
331
324
317
316
311
313
332
356
376
372
337
331
336
333
326
327
329
335
332
337
345
344
345
242
469
658
300
299
296
291
291
295
308
334
354
360
337
317
321
322
319
319
325
326
333
340
348
350
346
100
664
575
310
302
304
302
304
310
325
351
371
374
351
355
356
355
352
353
356
364
367
380
379
376
292
476
663
329
331
324
327
323
322
334
355
378
384
363
348
361
357
354
352
355
358
364
369
377
383
377
157
663
624
333
329
327
323
323
327
338
357
378
372
349
343
357
351
347
345
350
352
357
364
371
372
369
140
663
552
327
323
317
316
315
313
330
353
378
369
341
333
346
341
336
331
335
333
343
356
359
358
348
115
663
339
319
313
310
306
306
315
338
363
378
356
326
327
331
327
322
324
331
332
334
345
345
347
239
495
661
300
299
295
291
289
295
312
333
352
361
337
324
334
335
332
334
341
346
353
360
362
361
314
310
663
321
321
315
315
315
314
328
346
373
384
358
342
353
354
351
347
350
360
363
364
366
363
329
277
663
324
318
313
315
311
310
324
345
369
379
355
336
347
352
344
345
349
356
360
358
359
366
363
360
151
663
621
318
317
314
314
316
315
337
358
383
382
348
333
344
345
340
340
347
363
357
361
366
368
368
95
664
447
332
325
319
319
316
324
343
368
386
372
340
341
347
343
336
339
351
357
352
357
361
358
111
664
511
320
312
312
309
309
314
337
364
384
374
340
335
345
344
342
344
362
353
359
363
356
285
398
662
313
314
308
309
303
305
315
340
360
368
344
321
330
331
319
321
344
347
345
349
348
325
211
664
309
309
304
302
305
307
326
348
373
384
361
339
345
340
338
337
352
352
359
363
361
349
161
663
354
321
313
313
309
309
323
343
369
383
365
342
352
353
345
346
362
364
362
373
374
374
101
663
451
328
317
315
313
308
311
338
360
376
360
330
331
337
330
326
332
342
343
350
351
343
227
531
661
300
299
292
291
290
296
309
328
358
363
340
322
325
326
324
334
345
342
346
351
350
175
662
659
307
307
307
305
309
312
326
351
377
375
350
341
351
348
344
349
361
355
364
361
362
83
663
578
321
316
311
310
311
316
335
356
376
373
344
350
353
350
348
353
370
367
370
372
370
286
481
662
320
324
323
322
318
320
332
351
374
379
356
343
355
351
345
347
353
360
365
360
364
360
357
115
663
485
318
310
305
303
303
307
326
352
369
364
324
315
318
313
316
314
319
335
334
336
336
330
288
234
663
295
291
286
285
290
294
309
331
356
369
351
331
332
340
337
339
344
360
358
363
364
361
357
120
663
365
330
321
326
322
322
332
354
378
397
381
352
353
355
352
350
355
369
370
371
377
374
377
103
663
506
339
329
329
327
322
328
345
370
388
383
352
352
360
354
349
355
362
369
369
366
375
373
368
186
663
596
323
315
312
307
310
312
328
352
376
374
339
320
325
322
315
320
320
329
325
331
336
339
336
222
512
657
293
291
287
286
288
295
312
341
366
378
352
332
334
333
330
333
344
350
353
360
363
368
359
126
663
371
330
327
326
327
323
333
351
375
394
377
355
354
359
353
353
352
363
379
377
369
373
370
366
161
663
349
332
323
323
321
319
328
349
369
386
369
334
337
339
335
331
331
335
347
343
344
344
340
274
322
660
299
295
292
292
288
293
307
334
359
368
340
313
313
311
306
307
319
329
330
333
336
337
332
45
664
451
299
290
291
294
297
305
330
348
371
367
346
341
349
346
343
349
369
367
366
367
365
320
302
663
328
322
319
319
316
317
331
350
376
390
370
352
361
361
356
354
362
378
375
374
376
372
267
555
662
320
324
319
320
318
316
335
356
379
383
358
345
354
355
354
352
361
371
381
378
376
375
372
347
260
663
340
338
329
330
326
329
337
355
375
391
372
352
352
353
347
345
342
353
356
366
357
355
352
351
219
593
643
307
303
297
298
298
302
316
342
367
370
336
315
319
318
314
313
321
332
334
334
338
335
333
204
579
659
291
287
286
288
286
289
303
327
350
356
336
321
329
327
328
331
338
364
359
358
360
360
285
409
663
307
308
303
304
305
306
323
352
378
384
357
342
346
349
347
349
358
370
365
371
369
371
100
663
628
326
322
320
322
324
331
349
373
392
379
353
351
359
356
351
355
364
369
372
370
370
368
365
115
664
604
319
315
312
311
311
317
335
357
378
376
347
340
348
350
344
344
350
369
365
367
372
369
367
124
664
371
323
314
310
311
310
314
340
362
376
357
330
331
332
331
322
323
329
337
338
338
342
337
330
83
663
321
297
286
284
289
288
300
324
347
361
348
316
316
315
315
310
317
326
330
336
341
346
341
138
663
641
308
305
304
306
306
314
336
361
384
382
356
348
356
354
352
354
367
375
366
375
373
373
98
664
572
332
327
326
323
325
331
353
374
395
388
359
361
365
360
359
359
367
379
384
379
380
379
376
217
662
659
330
330
326
325
322
325
336
360
385
388
361
342
353
350
342
344
346
354
365
357
351
353
349
343
90
663
332
307
300
295
298
295
306
332
355
376
361
323
320
321
315
316
320
325
339
336
337
339
334
297
204
663
292
293
289
290
290
292
308
328
354
370
355
327
333
336
330
333
342
352
363
351
354
355
352
149
663
641
314
312
308
308
309
313
337
359
383
384
357
344
348
344
341
343
354
359
368
377
365
366
363
365
197
662
660
312
318
311
314
312
318
334
361
384
393
364
341
348
345
339
339
345
356
368
364
360
364
359
351
138
664
349
320
312
317
313
312
322
345
371
392
375
344
343
346
342
339
346
352
360
372
362
368
364
361
289
414
662
312
316
311
311
308
311
327
355
380
392
365
330
338
331
324
324
332
335
342
351
340
345
343
339
117
663
551
303
292
294
294
295
302
327
349
377
379
346
325
325
323
321
328
339
345
360
353
354
354
352
233
562
662
309
311
312
311
311
316
337
364
391
403
379
350
352
351
347
347
355
374
369
364
370
365
364
91
663
406
327
318
319
318
316
325
350
372
393
388
358
358
362
357
353
357
366
378
377
371
377
377
370
103
663
423
332
322
321
316
312
320
339
362
388
379
343
337
336
331
324
328
336
343
334
341
338
339
176
636
606
298
291
286
289
291
297
318
346
371
375
341
321
319
315
313
316
324
343
335
333
330
332
284
255
662
295
300
295
299
299
304
320
345
371
389
377
343
340
343
340
340
345
367
361
361
364
357
344
166
664
342
319
314
314
316
317
328
353
379
401
381
355
355
358
352
351
356
363
381
379
375
374
373
349
229
663
336
331
323
321
319
319
327
349
372
394
377
348
348
351
343
341
348
360
374
362
366
366
361
312
337
662
313
318
312
312
308
310
324
351
378
390
364
329
326
328
319
322
324
336
345
333
339
335
332
234
457
660
288
285
284
283
285
294
310
335
356
372
349
320
319
322
322
324
335
353
352
352
353
355
339
129
663
344
313
307
307
309
309
326
353
377
397
379
352
350
352
346
345
357
369
374
363
367
367
366
108
663
590
322
316
315
312
313
323
339
368
393
389
356
344
348
341
340
342
352
362
368
355
361
358
355
124
663
599
310
310
303
302
302
302
321
347
365
363
330
324
323
321
319
319
333
349
358
362
366
373
381
376
153
663
404
344
332
330
328
324
330
350
377
393
384
353
356
356
353
346
351
354
361
355
355
358
353
220
573
656
308
309
298
296
294
301
316
339
368
376
351
331
330
327
325
328
341
350
338
340
341
341
215
558
660
295
297
294
295
294
303
309
332
359
369
351
334
334
330
328
331
345
357
350
356
358
356
142
663
652
312
312
306
310
314
318
336
361
388
389
361
349
356
350
353
352
362
377
371
374
373
371
322
332
663
325
322
316
318
314
315
327
349
370
388
371
349
354
355
347
350
354
361
374
368
367
365
364
355
169
663
359
320
314
314
312
311
320
342
369
390
375
345
346
347
339
336
338
347
359
352
346
350
348
343
57
664
355
309
297
296
296
297
307
327
353
372
364
333
327
324
322
320
328
344
344
333
339
335
333
78
664
564
299
293
292
295
294
304
324
348
371
375
348
336
341
338
336
339
355
357
340
340
334
335
67
664
602
302
300
301
301
301
303
319
343
365
368
350
347
354
351
348
353
362
378
369
370
370
369
301
417
664
322
323
318
319
316
320
335
358
383
395
376
356
362
363
356
360
368
373
386
383
376
377
375
376
91
664
506
332
323
323
327
324
333
353
380
397
391
359
352
355
347
345
345
353
359
372
366
363
361
356
339
198
663
319
315
310
310
307
308
322
351
372
396
373
336
331
334
325
322
322
334
344
339
345
338
338
283
294
662
291
290
284
284
288
290
307
330
356
376
356
333
352
369
297
324
333
349
353
336
347
341
356
59
663
408
312
304
301
298
301
311
331
368
372
370
341
343
344
337
342
338
360
360
348
354
353
354
76
664
422
316
306
306
303
305
319
336
354
381
370
339
344
342
342
337
339
366
357
362
361
356
351
140
663
345
316
309
307
311
307
321
337
363
375
363
342
339
341
334
336
340
359
361
357
355
356
343
154
664
335
315
306
304
307
301
316
337
359
375
361
338
338
340
334
333
340
357
349
361
361
355
254
523
662
321
323
322
330
327
327
339
365
388
397
374
366
372
364
359
355
372
366
366
359
356
331
161
662
310
312
300
296
293
293
306
321
349
364
346
326
329
333
324
327
346
341
343
342
345
345
114
663
359
318
305
304
305
303
311
328
344
364
356
346
353
358
357
352
358
377
366
366
367
370
262
583
662
325
328
324
322
317
317
332
348
367
380
358
349
356
356
351
352
361
372
367
365
362
365
352
177
663
339
338
334
326
325
329
338
362
390
401
378
344
346
344
340
340
343
348
348
348
351
348
351
126
663
543
311
301
295
295
297
304
323
350
370
370
339
327
327
327
326
332
346
345
351
349
346
298
252
663
305
309
300
301
298
300
311
331
356
369
356
344
348
350
344
347
364
362
363
361
362
303
321
663
321
319
313
312
312
309
325
347
367
376
358
348
358
354
351
353
374
363
371
368
368
284
473
663
317
319
315
309
313
309
322
343
362
365
342
339
347
347
343
347
350
358
360
371
372
370
371
97
664
473
330
320
320
321
317
318
334
352
371
366
341
351
355
350
347
347
354
357
361
360
363
360
361
327
224
662
318
309
307
301
303
303
317
340
362
377
351
325
330
329
328
321
327
333
342
338
342
338
334
314
138
663
308
294
294
288
284
288
296
316
339
350
341
324
329
332
330
331
338
350
352
353
360
357
348
79
664
387
317
311
305
307
312
317
336
360
381
368
350
357
361
359
357
368
377
385
375
379
375
376
113
664
582
331
323
316
315
316
315
337
360
377
369
350
351
355
352
350
354
362
371
377
380
368
370
371
367
151
663
610
324
320
316
318
312
314
331
350
371
381
351
345
351
350
345
347
349
357
359
359
363
357
347
353
351
348
138
663
520
309
302
302
295
293
300
320
341
373
377
347
319
323
320
316
320
324
335
342
351
337
341
334
336
82
663
540
299
291
286
289
290
298
319
342
361
361
337
331
340
343
338
344
354
367
369
361
363
359
361
76
663
517
322
318
320
316
316
324
338
361
383
378
361
362
367
365
359
364
375
386
377
383
377
379
254
625
662
316
324
319
316
313
307
320
340
362
372
351
350
360
356
353
353
360
372
375
369
369
375
369
104
664
422
327
318
312
310
308
312
331
356
378
368
333
336
341
333
331
331
338
345
346
340
344
347
341
76
664
483
304
292
290
290
289
298
314
338
354
356
327
318
322
318
315
323
334
349
340
345
343
341
143
663
639
295
290
296
290
293
300
322
348
370
373
354
341
349
347
340
345
359
371
366
370
369
376
112
663
599
328
321
320
316
320
324
338
363
383
375
356
355
359
357
356
357
366
378
381
370
377
373
371
109
663
520
332
325
327
321
315
316
335
356
378
376
349
352
359
351
349
350
354
364
372
380
360
366
361
356
178
662
568
315
310
308
304
303
311
326
351
375
377
346
325
334
333
327
324
336
344
348
357
350
345
345
339
267
394
661
297
303
297
301
301
303
322
350
375
387
370
339
337
335
331
334
341
347
351
366
362
362
360
358
293
370
662
311
319
313
312
317
311
330
347
370
383
368
345
349
349
347
347
353
360
368
374
385
366
372
368
366
152
662
566
326
323
320
319
318
316
333
351
379
382
359
343
350
346
345
344
349
358
360
369
374
381
360
358
352
352
138
663
511
318
303
308
305
303
310
328
356
383
387
356
330
332
330
323
332
340
350
354
368
357
356
354
354
304
302
662
312
312
311
312
317
312
320
352
378
390
371
346
342
342
333
336
344
350
356
362
369
377
354
359
358
355
187
661
629
317
314
312
307
306
312
324
347
371
379
359
338
345
341
339
338
343
354
358
364
367
378
370
360
362
357
333
199
662
319
316
314
311
311
309
318
336
361
387
373
346
343
347
336
337
339
349
352
359
357
361
366
358
349
347
346
278
354
656
311
308
305
305
304
305
323
352
374
394
374
331
325
329
324
325
329
339
345
348
358
368
351
354
351
349
236
546
648
318
314
317
321
314
318
328
352
375
387
369
341
350
347
347
345
352
361
363
372
375
372
364
366
360
358
106
663
415
323
318
309
314
307
318
335
364
388
388
352
331
333
333
331
334
336
340
357
347
349
347
340
318
148
663
305
300
293
294
291
292
298
324
343
366
358
338
343
345
343
340
346
355
373
360
362
361
360
256
471
662
312
316
310
313
314
311
327
348
378
393
374
358
363
363
359
362
365
387
381
379
377
381
379
102
664
451
335
327
329
324
320
326
339
363
381
375
353
359
360
354
350
351
362
368
377
373
365
369
363
356
103
663
359
321
313
314
305
303
314
334
358
377
364
331
325
325
325
320
325
333
336
350
345
344
341
337
328
54
663
341
301
287
289
287
282
300
324
349
374
367
335
332
336
333
334
337
344
367
360
360
359
358
359
91
664
402
327
324
320
317
318
322
340
358
381
376
356
357
367
357
354
355
362
372
378
374
374
373
369
335
263
662
322
325
322
319
314
314
322
344
365
374
360
338
346
350
344
341
347
350
358
362
357
353
354
345
339
113
662
324
308
304
304
300
300
309
335
360
377
365
324
320
325
315
318
319
328
334
350
340
338
332
334
281
263
662
295
291
291
289
292
294
307
336
360
378
364
338
342
346
349
345
351
359
380
372
373
371
368
362
96
664
407
330
323
321
318
319
325
343
368
393
378
356
361
370
359
357
360
373
379
387
377
385
377
378
304
422
662
328
329
327
325
321
322
327
344
368
383
366
341
353
354
350
345
351
359
367
371
380
369
368
361
361
325
255
661
319
316
314
314
306
308
319
345
369
386
362
328
321
326
323
320
328
329
339
340
347
355
345
337
337
330
303
160
662
295
292
285
284
284
291
304
323
351
371
361
334
330
330
333
336
338
350
353
369
364
362
362
357
360
107
664
377
328
319
321
319
316
325
347
371
393
384
362
362
362
357
356
358
369
374
384
389
379
379
377
378
282
509
661
327
332
325
326
322
317
327
350
367
384
364
348
351
360
351
349
351
361
363
379
366
364
360
358
353
101
662
348
314
316
306
300
302
314
334
368
383
374
340
332
333
329
329
333
337
345
353
334
337
335
331
230
451
659
287
282
280
280
277
278
293
317
341
351
327
310
317
316
316
316
324
335
351
341
347
347
352
264
411
662
303
303
303
304
302
306
322
347
376
388
363
345
347
352
345
346
355
368
374
367
376
373
368
271
510
663
319
324
320
321
319
318
334
358
382
392
366
353
364
361
353
353
357
366
374
386
375
375
374
374
314
371
663
321
324
317
319
311
312
320
340
360
376
360
340
347
350
348
347
351
356
363
369
375
385
361
368
363
362
247
558
656
319
315
315
312
310
308
325
346
372
382
361
329
333
336
330
326
330
334
342
350
356
352
343
340
340
328
75
663
324
298
294
291
294
295
305
328
356
375
371
330
325
327
327
323
331
341
345
362
362
355
354
356
357
79
663
452
325
318
317
321
321
328
346
371
396
395
363
350
357
357
353
359
362
372
385
381
376
382
375
376
138
664
554
336
331
327
329
322
323
340
363
387
387
358
352
364
358
353
349
355
363
366
377
366
372
363
361
348
158
662
328
320
317
311
311
309
318
340
364
384
368
330
329
335
330
323
329
335
340
346
357
343
343
341
341
265
346
659
296
297
300
295
295
299
316
346
368
385
358
324
325
325
322
327
329
337
348
362
359
351
354
347
341
97
663
342
313
305
307
303
307
319
344
369
391
380
345
340
344
340
336
343
348
361
368
358
366
366
370
228
651
660
326
328
328
329
327
319
332
350
376
384
362
348
359
358
351
348
354
366
371
384
368
375
371
367
300
393
661
322
326
323
320
319
310
329
353
373
385
363
329
334
338
328
328
332
335
342
354
349
347
345
341
337
56
663
346
302
298
294
293
296
306
329
353
371
365
330
318
323
315
317
322
329
339
353
337
344
343
342
226
522
661
304
305
303
309
309
314
327
355
381
396
373
348
351
356
348
347
357
364
375
363
368
372
366
327
282
663
326
326
321
323
318
319
333
356
377
394
374
349
352
359
351
346
351
358
375
366
371
374
373
351
212
662
335
332
325
327
320
319
331
352
371
391
366
339
343
350
343
340
342
351
359
364
351
350
355
347
243
458
656
307
304
302
304
304
308
320
341
364
373
350
320
322
323
317
324
326
334
344
336
331
332
330
286
224
662
287
291
289
291
290
292
308
330
356
376
363
342
342
340
343
341
351
371
368
363
368
364
367
149
663
647
323
323
325
321
319
325
337
363
382
386
361
356
359
357
356
359
365
380
378
374
376
377
372
156
663
631
330
322
322
321
318
321
335
360
382
380
354
342
352
349
347
343
350
357
365
360
359
363
367
355
186
662
624
316
308
311
312
308
310
321
345
365
371
340
326
338
338
333
332
342
349
358
350
349
351
349
303
294
662
292
290
291
286
275
276
280
295
314
339
320
288
289
288
280
288
300
313
355
307
325
324
341
338
180
658
308
302
268
309
298
297
313
338
368
397
383
357
362
358
361
354
358
364
365
377
379
388
374
324
413
661
316
321
327
308
308
313
340
357
379
398
375
357
349
344
340
345
354
362
354
360
355
356
119
664
613
323
315
302
301
298
300
309
322
339
348
338
320
322
313
317
325
342
316
317
316
316
187
658
643
258
248
247
252
247
249
254
270
280
291
287
293
303
301
313
334
333
319
340
339
346
148
663
577
335
339
346
350
356
354
353
358
373
383
382
386
387
392
399
407
415
384
382
384
376
216
663
661
309
308
314
306
305
308
317
329
337
358
353
314
342
385
354
363
383
377
384
379
391
244
662
662
358
363
361
363
361
374
384
405
429
434
419
407
406
403
401
402
394
393
392
394
386
373
153
663
341
331
322
319
316
313
327
343
368
386
371
330
316
316
317
321
317
330
342
350
348
258
474
643
316
306
302
298
294
292
303
328
351
364
334
307
308
310
309
321
323
330
338
345
341
194
649
627
307
305
303
303
302
300
315
337
365
379
357
335
338
338
337
341
348
351
363
364
361
171
663
555
324
318
317
313
313
315
332
359
386
393
362
348
347
345
343
346
356
362
369
370
368
96
663
392
337
330
329
327
321
330
350
372
403
390
359
350
353
347
349
357
357
361
367
367
365
104
663
409
336
325
318
317
314
323
342
369
388
380
348
341
343
339
341
352
364
355
362
362
362
110
663
429
329
322
318
319
317
322
347
366
391
386
344
340
338
335
336
344
353
364
355
366
359
362
137
662
475
327
320
317
317
319
324
344
369
386
385
346
331
334
332
330
332
350
350
352
359
358
324
263
661
319
319
316
314
311
313
328
347
373
383
357
331
334
331
329
330
336
350
347
348
350
351
219
574
599
317
314
310
310
310
313
330
355
380
381
347
326
329
331
329
334
341
346
362
361
355
354
354
306
288
660
315
314
313
312
315
316
337
355
381
392
373
334
332
331
332
328
337
347
361
362
354
354
352
339
167
662
321
320
318
318
316
318
327
352
376
396
371
340
342
343
342
340
347
366
363
355
357
356
323
177
661
319
317
309
310
304
310
318
341
363
381
363
337
338
336
335
336
342
362
356
351
354
353
313
247
662
315
312
309
308
307
309
322
346
368
381
360
335
340
339
335
337
343
361
359
360
361
360
326
260
663
320
322
318
316
316
315
332
351
376
388
364
340
343
344
338
341
347
356
369
372
361
364
361
355
100
663
364
322
314
312
313
312
323
344
371
389
380
343
337
339
334
338
340
349
359
371
362
364
364
360
243
590
658
321
321
317
316
317
319
336
360
382
389
363
336
340
342
336
338
344
352
357
368
365
358
362
361
323
275
662
321
327
326
324
324
322
335
351
377
394
372
341
339
342
338
337
344
352
365
361
361
362
362
336
200
662
321
322
315
316
314
310
325
349
374
388
366
337
336
338
332
332
338
344
352
362
352
357
356
358
160
662
508
323
316
316
318
314
317
335
357
380
384
353
334
339
339
336
340
349
355
364
356
362
364
361
206
645
565
329
322
322
324
318
322
339
364
384
389
361
341
347
344
344
344
352
359
368
358
365
364
362
246
546
607
328
322
321
320
316
317
338
365
384
389
354
328
331
328
325
327
334
345
348
341
345
343
345
67
662
381
310
298
301
297
300
313
334
357
379
372
337
325
328
325
324
332
346
356
344
348
347
347
67
663
482
312
301
302
302
306
313
336
363
382
376
349
342
347
343
343
349
365
364
367
367
370
342
237
664
329
326
319
319
315
311
327
344
364
379
365
349
355
355
351
352
354
369
373
368
373
373
371
116
664
379
334
329
323
322
317
327
338
363
376
367
340
340
348
343
338
340
349
356
362
347
354
346
345
89
662
441
309
297
297
294
291
297
313
335
353
353
323
315
320
318
317
325
331
350
344
340
338
334
253
387
662
288
291
284
292
290
295
305
327
350
363
350
333
343
347
341
347
363
377
367
372
377
375
152
663
643
332
327
325
323
322
322
332
354
372
379
359
358
363
363
358
364
376
385
372
377
374
378
137
663
611
332
325
324
319
316
317
330
353
369
366
348
352
359
358
355
356
367
372
381
369
380
377
372
169
662
584
329
324
325
322
317
317
330
355
369
372
347
338
345
345
338
337
348
350
353
341
348
361
355
357
299
323
660
313
316
308
305
302
305
317
338
362
376
356
327
325
322
322
320
326
333
334
337
346
350
350
324
150
663
316
312
302
305
304
306
315
337
364
379
366
336
342
343
335
338
343
350
351
360
365
368
364
236
623
661
314
315
313
314
311
315
329
354
372
378
354
342
350
348
341
344
352
361
363
366
373
371
369
354
204
663
336
325
326
321
320
317
328
344
368
380
363
337
345
345
342
338
347
353
363
355
359
365
368
366
351
175
663
331
324
322
320
322
315
322
342
362
378
365
334
338
342
336
334
340
346
352
357
354
348
361
362
355
333
196
661
316
317
312
314
317
315
325
349
368
387
368
337
333
337
336
333
343
350
356
366
363
364
368
370
365
172
662
541
332
326
328
324
319
320
341
364
386
388
353
332
334
331
324
327
337
344
353
346
348
343
343
202
600
652
297
295
288
292
291
293
314
338
360
369
342
321
323
323
316
325
332
342
350
342
347
347
349
78
663
542
308
300
302
305
304
310
336
363
385
386
355
341
345
341
343
350
355
374
364
374
369
369
226
658
661
316
319
318
321
316
319
335
352
376
381
361
344
353
352
350
346
358
364
378
365
369
369
367
292
424
662
315
320
318
313
310
310
322
338
363
374
354
337
345
344
339
339
345
352
359
373
366
364
362
360
339
207
663
318
321
319
315
314
312
322
345
367
383
365
330
331
334
331
324
331
337
341
354
346
348
346
340
292
255
661
300
304
301
304
296
302
318
337
366
380
361
331
323
327
321
327
333
342
361
349
352
351
348
330
135
663
327
318
310
312
311
313
325
351
370
390
379
348
345
346
342
346
352
359
379
371
369
372
368
362
121
664
374
324
316
316
315
315
321
342
363
382
370
345
346
348
346
343
349
354
372
362
366
367
365
356
142
663
347
323
320
321
315
314
318
342
362
377
366
336
338
340
334
331
336
344
356
358
355
358
356
354
134
663
496
319
313
311
307
304
310
325
348
372
371
339
325
336
334
330
334
341
349
361
354
358
355
353
344
119
662
328
318
317
310
305
308
319
342
368
388
370
333
325
333
322
324
329
338
347
341
344
345
343
229
512
655
307
302
300
300
302
311
327
354
380
388
359
336
337
338
333
334
340
358
350
356
357
355
311
308
663
316
319
313
313
312
321
340
353
384
402
371
344
346
350
336
339
350
368
359
367
366
370
324
311
662
323
330
324
325
324
325
332
347
370
381
364
344
347
352
344
347
356
371
361
373
373
372
314
377
661
330
333
332
336
338
340
352
377
397
400
374
345
353
350
344
343
350
353
356
363
360
359
279
427
661
310
312
305
302
300
304
316
335
354
362
343
327
329
325
319
321
331
336
338
341
338
337
149
662
638
294
284
282
282
280
286
306
330
354
357
332
322
329
330
331
334
354
354
359
363
361
351
145
664
375
319
311
311
312
311
324
341
365
379
366
345
351
353
352
354
358
374
372
371
367
363
336
198
664
328
304
297
298
297
298
309
330
352
369
348
328
337
339
340
340
347
363
360
361
363
361
353
119
664
385
315
307
305
299
301
310
336
354
370
354
329
333
338
334
335
341
360
357
358
361
361
361
70
665
537
323
313
315
313
314
321
342
363
382
375
345
342
346
347
347
353
371
367
371
370
371
362
146
663
371
328
321
320
319
320
333
353
373
388
368
343
346
345
342
341
348
356
358
367
367
369
302
407
662
321
326
322
319
314
316
327
349
370
382
353
335
340
339
334
337
340
347
351
356
353
354
339
110
663
335
316
306
306
300
302
311
333
353
372
356
328
329
330
327
328
334
345
348
346
351
349
348
135
663
636
306
302
302
300
301
305
323
346
370
372
345
333
340
338
338
341
349
371
366
364
365
362
349
133
664
359
316
309
306
306
308
319
340
362
378
362
336
338
342
340
343
347
360
378
366
366
362
359
346
157
663
344
322
316
314
312
312
319
342
364
381
368
343
346
347
341
343
348
358
367
378
366
371
368
365
284
419
662
320
326
324
321
322
319
331
349
372
385
364
340
344
346
339
341
347
357
362
365
354
358
355
353
138
663
526
323
311
308
307
303
311
330
359
381
382
344
324
329
326
323
325
337
342
353
342
344
343
341
235
500
661
297
299
295
292
294
297
313
335
362
376
354
332
335
337
334
336
346
356
364
355
361
358
357
193
661
658
309
307
307
308
308
313
332
358
383
388
358
340
344
343
340
344
352
358
371
357
362
359
357
280
434
662
305
311
308
307
307
309
324
346
370
381
360
335
339
338
336
338
345
354
369
365
360
362
360
359
86
663
436
327
321
321
320
317
323
342
364
384
376
346
344
348
345
342
346
354
361
374
366
367
366
363
350
152
663
332
325
322
320
317
312
322
339
363
381
366
334
335
339
338
336
340
348
353
365
358
356
354
351
331
141
662
321
318
312
309
309
313
325
352
378
396
377
340
335
334
330
330
336
345
359
357
348
351
350
350
123
663
565
314
306
307
305
306
311
332
359
385
387
356
340
341
339
339
344
351
358
372
361
365
363
362
314
304
662
311
316
314
313
312
310
320
341
365
378
363
342
349
348
343
345
353
362
377
373
371
373
371
368
99
663
404
329
324
324
320
316
318
334
354
378
371
345
346
352
345
347
357
363
368
374
379
362
364
360
356
171
662
556
321
315
313
310
307
314
332
358
382
385
351
327
328
322
321
326
332
338
351
345
343
342
339
322
111
663
311
299
295
292
292
291
306
327
349
369
352
326
330
332
334
336
341
351
371
365
361
358
355
345
103
663
352
319
313
315
314
312
320
342
366
382
373
346
348
352
349
349
354
363
373
381
367
372
370
368
193
662
651
325
323
320
320
314
312
325
342
369
374
352
342
349
349
345
349
356
362
371
380
364
369
366
365
264
490
659
318
325
322
318
312
310
318
337
358
371
348
332
340
343
339
343
352
361
366
372
384
372
367
365
358
340
134
662
328
320
320
316
319
316
330
349
377
395
380
338
332
334
330
328
334
344
346
360
347
350
351
349
247
464
660
306
306
304
299
298
300
315
338
365
372
351
327
332
335
332
337
341
351
367
359
357
357
354
354
68
663
402
321
312
313
311
310
316
337
362
385
376
350
347
352
347
346
352
360
367
381
372
375
374
372
339
248
663
324
327
321
322
320
317
325
342
364
380
367
346
353
354
352
350
355
362
370
381
378
369
370
367
363
107
662
431
330
323
320
318
313
316
332
355
378
374
344
336
341
338
334
337
345
354
358
367
357
357
354
350
297
279
660
311
312
308
305
306
306
319
344
372
388
365
330
330
333
329
331
335
341
347
359
345
350
345
344
268
359
661
302
303
299
297
297
301
314
339
363
380
358
334
337
339
336
339
345
352
370
365
362
363
361
359
82
663
430
323
317
314
313
308
316
334
357
375
370
347
347
354
351
348
350
357
368
375
361
369
368
364
244
567
657
324
326
322
321
317
312
321
340
362
369
350
338
348
351
349
347
353
363
365
378
361
368
365
358
291
338
659
316
316
311
310
307
307
323
345
371
384
355
325
331
331
331
330
335
344
356
350
352
353
349
339
107
663
326
312
306
303
301
302
313
333
359
372
359
332
334
337
335
337
344
351
369
358
359
358
358
324
201
663
323
317
313
311
308
309
322
344
371
385
369
345
350
353
349
349
357
367
380
369
374
374
371
277
497
663
317
321
317
314
313
311
322
344
367
375
355
339
349
350
346
346
352
359
375
371
371
371
369
364
121
664
362
327
321
319
315
312
316
334
353
371
362
339
345
349
345
341
343
353
359
372
362
367
366
363
326
255
662
317
320
316
315
311
310
321
339
365
378
358
331
337
339
335
334
342
351
356
369
357
363
357
354
319
216
662
312
312
310
308
307
305
324
348
369
389
366
330
330
331
325
323
330
339
348
357
343
348
347
347
170
661
619
314
310
307
307
305
310
326
352
376
382
355
332
339
341
338
343
347
357
377
352
363
362
361
288
393
662
316
323
318
317
314
312
322
344
364
381
359
339
346
347
341
342
349
356
370
367
362
366
363
359
106
663
451
322
315
316
314
308
311
326
346
369
366
340
334
346
343
340
344
351
361
375
372
364
368
364
363
118
662
441
333
327
325
321
317
321
339
361
382
379
342
332
340
336
333
337
344
353
362
358
359
358
356
345
103
663
337
327
321
318
316
316
325
350
377
395
381
343
339
341
339
338
345
352
360
368
353
356
351
352
206
620
656
312
310
308
307
306
309
326
348
370
382
358
337
340
342
340
341
350
355
372
364
364
362
361
324
252
664
318
317
311
307
305
304
314
336
359
374
359
337
340
346
344
344
345
354
371
364
367
367
364
355
125
664
349
319
309
304
303
301
310
331
354
370
356
331
335
339
335
334
339
352
364
350
356
356
350
196
658
660
297
298
297
295
295
297
309
327
348
357
338
327
336
336
335
339
348
372
362
364
357
356
327
187
663
326
310
304
306
301
300
305
327
350
367
357
343
350
351
349
351
355
376
374
369
368
366
362
69
664
469
314
306
302
300
298
308
323
345
361
355
334
340
346
345
344
349
358
375
362
366
366
364
276
487
663
308
311
306
304
301
300
305
319
341
352
343
337
351
351
349
350
357
364
379
361
366
366
366
235
614
662
309
314
309
305
300
299
306
323
345
358
345
338
350
353
349
350
359
367
378
359
367
364
363
168
663
642
321
314
311
309
303
306
317
336
358
364
344
339
342
341
341
347
354
365
362
361
362
364
361
89
662
377
327
319
316
314
312
320
340
363
384
376
336
331
336
334
336
341
357
353
354
354
354
349
58
663
358
313
303
300
299
298
308
333
355
378
365
335
326
328
326
329
339
352
349
355
355
354
221
599
661
310
310
303
305
305
309
325
350
375
383
362
345
351
351
347
351
370
364
370
369
368
330
275
664
327
325
320
318
313
313
321
342
363
376
360
348
355
357
352
353
373
375
371
373
374
371
89
664
426
332
323
318
315
310
312
326
345
362
354
338
347
350
347
345
350
355
358
363
369
370
372
190
662
610
329
322
320
315
310
309
323
340
360
361
343
339
348
346
340
345
349
357
355
365
364
365
352
119
663
335
323
314
310
306
306
317
338
360
373
358
322
324
326
321
321
328
334
337
347
347
346
318
147
663
309
305
298
296
297
294
304
327
349
361
344
321
330
328
327
329
341
347
347
352
355
356
143
663
648
315
311
306
305
302
309
321
345
368
368
345
342
348
349
348
354
371
367
372
372
372
216
662
663
318
320
316
314
312
316
328
348
370
367
348
347
355
357
352
357
363
379
374
376
375
373
351
204
663
345
325
319
317
313
309
316
329
350
364
351
343
354
358
353
353
361
365
372
378
370
376
377
375
338
261
663
327
327
320
318
314
310
318
334
351
367
353
333
341
344
338
337
345
353
358
364
360
367
362
360
354
82
663
359
319
309
306
306
304
316
337
359
376
364
331
326
329
323
324
329
336
342
340
342
346
345
343
184
659
658
297
294
292
294
295
297
316
336
362
369
349
335
339
340
339
342
348
369
365
364
365
362
357
87
664
395
321
312
312
309
308
315
336
357
374
365
342
345
349
346
343
350
365
369
361
364
364
361
86
663
524
323
318
312
310
308
312
327
352
367
365
343
343
350
346
346
351
356
365
382
370
372
371
368
306
351
662
318
324
317
318
313
313
317
334
354
369
355
336
346
346
341
340
350
356
363
366
374
363
368
365
362
269
452
660
319
322
317
315
312
310
320
336
357
369
353
328
334
335
331
334
344
350
360
371
364
365
365
359
350
116
662
339
325
322
318
314
313
319
344
370
387
372
334
329
330
326
323
328
336
351
343
345
345
342
254
424
661
307
305
302
304
301
304
318
346
369
380
355
334
334
335
334
335
346
365
359
361
363
362
244
551
661
314
321
318
315
314
317
331
351
374
378
352
337
344
343
340
341
362
365
361
366
367
366
82
663
441
327
320
314
314
312
321
338
358
378
366
341
343
349
345
345
349
370
369
363
368
370
362
96
664
385
329
323
320
315
313
320
339
361
375
366
338
340
343
339
339
346
355
370
365
368
366
364
320
294
662
322
323
323
318
314
311
326
342
361
377
359
336
340
341
335
336
345
353
366
353
359
357
356
204
637
603
321
314
312
311
305
310
330
357
375
379
347
325
327
329
326
329
340
355
351
353
347
347
329
103
664
317
305
297
296
295
294
307
332
351
370
358
330
331
336
335
335
345
367
363
361
364
359
352
121
664
351
323
316
316
314
314
320
339
362
376
368
346
350
351
350
351
357
377
370
375
376
377
329
305
663
327
332
327
319
313
313
319
337
358
369
357
342
348
348
346
349
354
369
368
365
367
365
363
94
663
391
324
319
320
315
311
323
343
366
385
373
334
329
332
330
326
334
345
348
350
350
352
345
70
663
350
312
301
300
301
300
309
333
353
373
358
331
333
332
334
332
346
350
346
350
349
349
102
664
605
311
309
308
306
307
312
333
353
373
373
352
348
353
351
348
369
370
363
368
369
369
75
664
539
319
316
311
311
306
312
326
348
364
359
336
340
345
339
341
357
366
358
364
366
366
84
664
567
324
305
305
305
305
310
326
346
366
364
345
345
349
348
348
355
372
359
370
366
370
205
662
658
325
324
321
318
317
313
323
342
362
367
345
343
349
350
345
346
363
365
360
363
364
366
90
663
433
327
324
320
318
315
319
337
357
377
365
336
333
336
335
332
335
353
350
356
353
357
336
129
663
319
313
306
303
302
303
316
338
363
379
361
327
326
324
322
322
339
342
339
344
342
339
87
663
563
301
291
292
294
293
302
316
341
365
364
339
338
340
341
340
356
364
357
362
365
368
113
663
605
323
314
310
310
312
316
331
349
373
370
349
347
349
344
343
349
373
363
368
371
367
339
235
664
328
324
319
320
312
311
319
333
355
368
353
337
345
343
342
342
351
369
366
370
369
367
354
164
663
336
329
322
320
312
314
321
345
366
384
364
332
332
334
332
329
338
356
351
351
351
354
317
194
662
313
313
308
306
304
307
321
341
370
384
364
332
332
328
324
330
351
356
349
353
351
353
58
663
429
319
311
309
309
308
315
338
364
387
377
353
347
344
340
340
357
361
356
361
362
358
95
664
575
318
310
306
303
301
308
324
346
368
364
340
335
341
337
338
345
366
358
366
364
364
294
397
662
317
326
326
317
316
315
324
341
367
380
364
346
352
350
344
349
358
376
370
374
373
371
335
255
663
327
331
325
323
319
315
324
344
367
380
368
341
341
336
332
336
345
361
355
357
359
358
347
101
663
334
317
313
314
310
305
321
346
369
389
373
333
323
324
317
322
335
342
332
340
341
339
122
663
575
302
299
295
296
293
296
317
345
367
369
342
326
326
326
329
341
354
349
354
352
352
204
630
661
310
309
309
304
304
309
326
351
373
383
363
344
348
344
345
349
368
360
367
367
364
215
659
661
315
319
313
310
310
312
324
345
369
375
350
340
342
339
341
355
367
358
366
368
366
163
663
640
324
323
319
318
312
314
330
352
374
378
354
349
350
347
347
357
374
365
372
371
371
238
584
657
329
326
325
320
315
315
329
353
374
381
352
336
335
335
332
338
354
348
354
359
355
262
470
658
320
324
320
317
316
319
336
361
387
391
359
335
332
330
326
334
345
346
348
348
346
252
447
661
304
303
301
301
300
304
323
352
374
384
356
332
331
327
327
340
348
343
352
355
355
108
664
559
319
311
310
306
305
313
333
357
377
376
345
346
343
341
340
360
358
364
368
365
334
265
663
325
317
315
315
313
309
320
342
367
380
362
345
355
352
344
357
366
361
369
373
373
131
663
509
335
323
321
316
318
323
350
371
391
377
339
330
330
326
329
345
340
345
343
342
217
532
660
303
301
299
294
296
292
309
330
355
362
338
321
320
318
320
339
341
337
340
336
306
177
663
300
293
293
294
292
295
308
333
359
375
361
338
338
333
333
353
355
351
359
358
359
55
664
514
321
314
312
312
310
318
340
364
383
378
352
352
354
349
350
374
371
373
375
374
319
344
663
332
325
318
315
309
308
322
344
366
377
354
335
338
339
335
339
363
361
358
364
361
356
104
664
391
318
312
311
307
306
317
340
363
380
365
338
338
339
333
339
351
360
373
362
370
366
366
181
663
659
325
324
322
313
304
305
321
343
371
379
354
337
337
337
338
346
351
372
362
365
359
356
278
425
664
309
314
313
310
307
310
319
340
365
378
357
333
332
332
330
332
344
361
355
362
361
362
286
404
662
313
318
316
311
312
309
324
349
377
390
373
345
345
338
334
339
348
360
356
353
353
353
328
145
663
311
305
299
296
295
297
311
333
355
375
356
327
316
314
313
317
327
350
342
342
344
339
297
261
663
295
300
325
323
298
284
307
330
361
380
361
337
331
340
338
350
352
374
361
370
368
368
225
655
660
319
326
321
317
315
316
331
358
390
396
369
350
352
349
345
355
366
373
362
368
370
366
107
663
522
328
321
319
312
312
319
336
359
383
380
349
340
342
334
336
344
357
364
355
360
356
355
135
662
532
319
313
311
309
304
311
326
351
372
376
350
333
337
333
335
342
349
365
358
362
361
357
311
284
661
317
322
318
316
310
310
322
345
370
385
362
330
327
326
321
322
332
346
342
343
342
341
319
137
663
316
309
303
305
299
302
313
338
364
378
361
329
322
319
317
324
337
351
341
347
343
342
185
658
660
296
300
299
296
297
301
315
341
362
376
357
343
341
337
333
342
367
364
362
361
362
349
107
663
375
321
315
313
314
311
320
344
367
385
375
354
353
352
345
350
364
373
362
372
368
367
159
663
659
314
313
313
311
305
310
324
347
371
372
348
337
343
342
342
349
359
373
359
367
363
362
199
662
662
305
309
307
305
301
304
323
344
369
374
349
334
336
334
334
338
346
364
354
360
357
355
271
455
662
300
307
305
304
300
302
312
338
371
384
365
336
326
312
297
304
315
337
344
335
340
341
343
55
664
428
289
283
289
295
303
321
353
384
407
394
351
343
341
334
330
338
349
346
352
352
350
273
391
662
304
308
303
303
298
300
318
345
371
378
351
330
330
329
327
334
350
356
351
357
352
352
64
664
567
300
296
293
294
293
301
323
351
373
371
347
343
343
339
337
341
362
360
363
365
366
333
239
664
337
321
314
311
309
309
324
346
372
386
366
344
347
347
346
349
351
368
361
367
367
363
325
306
663
319
318
312
313
306
308
322
346
370
382
359
332
336
334
328
329
340
351
360
348
356
359
356
152
663
618
322
319
319
314
310
317
335
360
382
380
349
334
334
333
333
338
346
355
358
349
352
344
346
137
663
589
301
297
299
296
293
302
312
347
361
355
337
316
326
326
326
335
347
352
353
345
343
338
340
43
664
399
299
290
291
291
290
292
320
342
363
365
340
341
348
341
348
355
376
375
372
380
375
376
105
665
546
338
328
327
325
323
332
352
378
397
391
361
357
358
356
353
358
370
374
365
371
369
370
151
663
598
325
319
316
310
307
311
328
351
374
375
344
335
336
334
332
338
344
358
351
357
356
355
315
286
662
310
317
315
309
309
310
325
353
375
390
365
334
332
329
327
330
336
343
352
342
349
346
346
255
444
661
300
300
299
291
291
297
317
341
361
376
352
322
319
316
321
318
325
346
341
335
340
334
330
43
663
378
302
295
296
297
302
310
335
361
384
375
343
338
340
337
337
346
357
369
357
362
363
361
170
663
658
316
313
315
312
314
316
336
359
378
382
357
336
341
336
335
340
345
362
358
354
354
355
351
76
664
395
309
303
299
300
298
310
335
355
379
366
335
331
333
327
326
336
354
353
349
352
350
352
65
664
498
308
301
299
297
297
311
329
357
378
373
339
334
335
333
337
342
364
360
360
363
363
357
104
663
364
324
318
316
314
313
323
341
362
386
372
344
350
346
342
345
355
373
366
370
370
366
342
187
662
326
323
315
312
307
307
320
344
365
380
354
329
328
328
326
325
334
349
348
347
346
342
322
120
663
316
305
300
300
299
303
313
335
361
378
361
336
331
332
333
337
342
366
360
361
360
358
325
200
664
325
320
314
314
314
315
325
348
372
386
369
345
348
346
346
343
350
371
363
368
366
363
345
166
664
348
316
308
308
303
304
313
334
357
372
358
336
342
342
341
344
356
364
375
361
367
367
367
210
660
658
322
324
322
321
321
320
333
352
374
382
360
344
349
349
346
351
358
364
377
375
364
368
364
362
88
664
426
319
309
306
303
303
310
331
354
374
366
327
319
320
315
313
320
331
338
348
333
336
332
333
185
601
646
290
283
282
281
278
286
303
328
356
362
335
314
317
315
316
322
332
339
354
343
348
345
346
258
424
662
303
307
305
307
304
309
324
346
369
385
366
340
341
341
338
343
352
359
374
370
363
368
366
365
87
663
477
328
325
322
323
320
327
343
367
387
384
353
348
351
349
348
354
362
369
382
377
372
371
368
364
95
663
392
328
322
319
316
312
317
333
356
377
370
340
332
336
334
334
338
348
351
357
370
369
364
360
359
352
102
663
349
322
315
313
314
309
319
342
368
390
377
339
329
331
329
328
337
342
350
359
364
352
357
354
353
182
658
593
320
316
314
315
311
315
335
360
385
389
358
333
337
335
331
337
346
352
358
368
354
362
359
359
235
559
656
318
318
318
316
314
313
328
349
372
383
355
332
337
335
333
336
344
351
357
369
357
361
356
352
294
314
661
311
313
312
311
309
309
321
345
368
382
357
323
322
322
320
322
327
337
353
352
350
352
350
351
100
662
446
319
314
315
314
311
318
338
362
387
385
352
338
339
338
337
341
347
356
368
364
362
365
361
353
114
663
345
325
321
318
318
316
326
346
372
391
374
336
330
330
328
328
336
339
353
344
344
345
343
304
156
662
300
298
292
289
289
290
300
319
340
358
342
319
320
321
314
317
327
343
342
330
330
327
326
63
663
524
292
286
288
287
287
290
308
334
357
361
342
337
343
342
341
347
358
371
358
366
361
360
185
663
660
311
311
306
307
305
304
320
344
364
369
346
338
348
345
341
344
354
365
353
359
358
357
221
631
661
301
302
297
295
296
298
311
333
353
359
334
323
335
336
333
331
342
360
359
355
358
360
357
89
664
428
322
314
316
317
314
318
336
356
374
361
334
337
345
346
340
342
351
365
349
352
351
349
336
94
663
328
309
297
300
298
305
312
338
350
368
355
327
328
330
329
334
346
362
368
360
366
366
363
91
664
626
319
317
312
306
298
297
306
321
339
343
327
333
345
340
337
341
364
364
349
357
358
361
120
663
611
320
310
294
297
297
305
313
322
356
353
331
318
353
350
355
348
359
376
370
380
376
369
204
641
512
324
313
314
306
304
309
321
343
359
360
350
345
340
341
341
350
368
368
361
362
362
359
132
661
411
316
308
308
308
312
322
342
369
384
380
339
324
325
325
330
338
356
351
355
354
351
272
369
661
300
300
295
294
294
302
318
342
366
375
351
330
333
335
334
338
359
360
358
358
356
341
131
663
341
316
311
311
311
313
323
346
371
386
372
347
348
352
347
348
369
370
366
369
368
362
81
664
425
320
311
307
304
302
310
327
349
364
351
321
322
322
318
319
330
341
329
332
333
329
162
661
631
288
279
278
275
276
277
293
315
335
339
313
304
313
311
307
316
329
337
331
336
337
338
132
662
578
301
296
296
293
291
296
313
334
356
357
333
325
332
330
329
336
354
360
352
360
362
364
105
664
493
326
319
320
318
318
322
338
356
376
372
344
341
345
341
340
347
366
367
358
367
366
366
103
664
477
331
326
325
326
321
328
345
367
387
382
353
352
353
352
350
355
364
377
367
371
369
368
281
446
661
320
325
322
319
316
315
324
340
361
368
346
328
332
333
330
332
340
357
353
350
355
356
353
88
664
362
321
317
317
316
316
320
337
358
378
370
347
350
355
355
353
360
371
383
371
378
377
376
271
509
659
335
336
329
329
327
333
348
371
394
394
361
337
343
336
334
337
342
359
354
350
350
350
343
58
663
348
308
291
288
286
285
297
316
338
357
343
314
309
311
308
307
315
321
337
326
330
325
327
170
647
652
287
282
284
286
289
293
311
332
355
363
339
327
332
332
328
334
340
361
353
356
354
351
224
585
662
297
302
300
299
297
300
315
335
358
365
342
331
337
338
337
340
350
369
364
366
365
364
346
181
664
342
322
316
315
312
314
320
337
357
372
359
340
350
354
350
348
355
364
379
377
372
375
373
370
107
663
395
332
326
325
326
321
326
340
361
377
369
340
341
344
340
340
346
353
361
368
352
358
354
350
141
662
527
312
302
299
296
291
297
314
338
359
360
330
313
315
316
314
318
324
342
335
332
332
328
296
152
663
294
290
285
284
286
289
302
323
348
362
347
329
336
338
335
335
342
358
364
356
361
358
357
100
663
553
319
311
308
309
308
314
331
354
374
371
346
339
346
345
345
345
355
365
373
362
366
361
362
156
663
631
319
317
316
315
313
319
337
358
378
379
352
339
346
346
346
356
364
372
377
389
376
372
375
365
291
392
662
317
327
322
322
322
326
339
358
379
389
366
334
334
335
329
328
337
348
365
359
357
358
355
351
83
663
368
316
311
310
309
309
314
329
349
367
354
323
323
327
325
324
326
334
348
346
342
346
341
341
91
662
421
302
290
291
291
290
302
323
350
373
367
328
315
316
313
310
315
324
336
337
332
337
337
338
79
663
508
304
295
294
291
293
297
318
342
363
364
336
323
327
325
