324
331
344
359
347
339
336
336
268
630
441
326
317
324
330
340
360
377
387
394
379
348
339
335
338
343
347
360
370
358
352
352
354
250
660
377
336
334
341
352
359
383
398
409
414
391
356
358
347
352
353
362
378
383
366
362
362
361
252
660
368
337
328
330
334
342
358
366
371
367
343
311
298
294
297
303
316
325
306
298
298
304
201
659
345
296
292
294
303
316
330
352
363
367
347
319
315
315
320
322
334
352
344
335
334
337
315
459
576
333
323
331
336
347
363
385
399
403
392
364
345
342
348
346
351
362
375
363
359
363
358
287
659
426
350
348
352
359
374
388
406
421
424
406
377
361
363
370
367
388
403
398
383
381
380
360
470
626
365
361
361
362
370
385
398
404
403
394
362
340
332
333
336
345
362
354
340
333
337
327
353
644
328
313
321
326
335
349
370
386
395
384
355
337
333
332
334
338
354
364
348
340
342
344
244
660
350
331
327
331
342
351
369
391
399
398
369
349
340
336
341
342
350
368
367
353
351
355
339
405
601
348
339
343
354
360
374
398
414
418
413
383
362
358
361
359
376
389
395
372
367
367
368
289
660
365
349
348
348
361
367
382
393
397
388
358
334
321
318
320
330
346
337
320
312
314
293
424
543
304
289
293
303
307
323
345
362
359
357
327
308
309
310
316
325
344
340
327
323
328
312
397
594
319
305
310
320
329
342
360
376
385
376
345
333
333
326
331
330
345
362
347
342
342
348
260
659
388
339
337
344
352
366
379
401
416
421
403
377
362
365
362
372
392
404
390
381
377
384
329
624
519
375
372
368
379
388
403
412
427
427
406
383
357
352
358
356
370
381
376
359
348
350
343
352
648
337
326
329
332
340
356
373
388
397
390
367
341
336
334
344
344
367
380
358
338
347
354
254
660
363
331
329
331
343
352
369
389
403
400
382
361
352
345
355
353
366
384
369
361
357
356
285
648
428
341
330
341
353
359
378
395
409
411
397
369
351
348
350
357
378
388
368
366
370
365
270
660
387
358
359
359
370
381
395
418
419
425
400
377
357
364
360
375
392
392
363
364
360
353
316
658
348
331
329
331
340
353
369
383
390
375
354
329
318
319
325
343
356
344
331
333
336
263
657
426
324
322
324
330
340
353
365
377
377
361
329
316
312
312
326
339
336
322
322
319
307
350
591
306
294
295
302
310
320
335
352
357
353
328
309
306
309
318
336
344
335
329
336
338
246
659
364
330
340
342
350
366
384
403
413
414
399
374
368
359
370
392
409
390
376
378
381
309
655
503
362
357
362
367
376
382
396
403
405
392
361
352
347
353
369
380
372
353
347
351
290
637
489
338
328
330
341
349
365
382
393
394
380
354
338
339
343
361
375
365
347
349
348
301
565
545
332
324
329
338
349
361
381
392
391
384
356
346
342
347
354
375
371
350
352
346
342
358
657
336
327
326
334
341
352
370
382
389
384
360
341
337
342
345
359
368
352
344
347
344
247
660
358
322
324
320
326
337
353
366
377
376
352
325
314
312
311
327
337
318
306
298
300
197
645
320
267
261
260
265
268
286
295
304
295
273
245
236
223
238
257
258
238
228
225
220
130
598
231
205
199
204
211
224
242
254
264
261
240
221
215
220
241
265
263
245
252
254
236
372
469
267
258
261
277
297
306
334
352
360
350
333
321
324
331
354
375
374
361
369
365
327
580
571
363
365
369
380
388
410
428
440
450
435
409
398
396
400
410
421
424
410
405
407
404
444
659
399
392
396
409
410
438
449
466
472
464
439
420
414
416
426
447
455
439
429
430
429
342
662
440
417
416
418
421
430
441
445
446
432
400
377
362
358
367
386
380
360
356
361
331
518
613
347
338
336
346
356
372
388
398
400
384
357
341
335
336
356
363
352
337
338
332
239
660
363
305
287
293
298
308
325
335
334
336
318
294
287
288
298
323
337
328
317
316
319
215
661
331
300
292
296
308
321
339
352
362
360
340
309
297
300
306
321
339
326
323
324
328
256
659
336
327
332
343
354
365
383
403
411
407
392
371
371
370
388
406
401
381
372
366
336
518
557
345
339
335
340
344
355
368
376
377
373
355
340
339
348
367
375
367
348
351
348
256
661
381
340
338
345
350
365
381
399
405
403
388
368
354
357
369
383
380
353
341
341
323
366
615
312
293
291
290
290
308
316
325
329
319
291
273
265
261
274
289
266
248
241
244
157
573
281
215
211
212
220
224
246
256
265
270
258
231
223
220
222
247
263
261
255
256
269
173
655
308
277
283
298
311
335
362
386
397
407
395
376
369
374
383
410
410
397
390
398
392
425
660
386
388
388
395
401
421
437
446
455
442
418
400
395
395
412
435
426
399
394
392
338
624
590
371
362
363
373
377
389
413
423
421
404
379
360
358
361
380
391
366
352
345
350
240
661
359
312
314
317
318
333
341
363
357
356
330
318
312
300
296
322
340
310
312
289
307
224
656
295
290
311
314
301
333
337
378
363
404
330
392
339
286
391
401
374
341
296
367
252
661
439
314
288
373
345
311
302
357
411
306
397
285
291
351
306
393
329
314
390
327
261
549
636
343
289
339
334
310
339
347
376
396
386
334
332
353
359
359
372
347
351
328
335
319
662
326
346
319
327
345
358
351
391
384
372
346
338
324
328
332
352
345
335
314
319
275
399
639
284
299
285
267
300
312
354
349
348
343
294
296
287
287
294
308
314
295
284
295
280
279
649
291
276
285
287
296
312
328
338
335
335
310
295
281
294
303
314
323
302
284
285
285
166
660
297
272
276
276
283
301
311
329
325
317
293
263
258
250
256
270
291
279
268
260
260
192
603
347
267
263
272
284
301
316
337
346
351
332
317
301
304
309
316
327
357
356
337
339
341
334
330
656
329
318
324
314
329
341
355
365
366
356
329
311
317
313
316
326
342
354
356
341
341
341
312
506
556
335
329
338
343
359
377
395
409
412
408
385
369
366
371
378
383
405
417
403
399
395
396
297
661
436
382
379
388
393
409
426
442
448
446
426
401
388
389
390
392
410
426
420
394
399
391
345
587
604
366
355
357
364
364
381
396
403
395
384
352
340
326
330
331
346
362
361
334
333
334
323
367
625
320
308
310
316
325
337
361
369
377
361
343
322
324
320
326
329
342
362
362
345
340
346
338
354
656
331
327
333
339
345
360
378
399
402
400
375
350
351
347
355
358
366
384
387
366
367
370
357
410
652
360
350
356
361
370
386
404
418
421
419
390
372
374
370
379
379
398
419
406
395
394
394
326
659
534
387
377
388
388
404
420
430
442
442
428
397
385
376
379
386
405
416
392
372
366
362
279
659
453
337
324
327
325
333
352
362
361
357
334
303
293
288
288
293
318
322
300
297
288
289
179
659
304
273
257
269
273
294
309
329
330
333
306
283
273
278
280
285
307
323
316
307
302
307
285
425
544
300
293
297
305
314
335
355
371
372
360
337
322
318
320
329
330
341
357
362
345
346
341
341
303
659
344
341
343
350
363
375
396
413
421
419
399
379
372
372
382
383
393
416
414
398
401
390
393
333
661
392
375
380
385
393
410
425
439
443
433
415
394
384
380
379
388
410
413
391
375
370
363
278
659
462
342
330
328
334
339
362
378
390
386
364
339
329
327
330
335
357
371
361
340
343
345
305
530
580
334
324
326
332
341
357
370
379
385
362
341
326
322
324
326
337
351
361
345
331
331
331
267
586
468
307
296
303
305
318
333
347
360
363
345
323
303
306
312
309
320
321
333
353
344
336
335
339
311
474
588
330
322
326
340
347
362
384
394
403
393
366
344
344
346
349
349
352
353
354
359
383
380
363
365
366
345
445
643
355
350
349
358
369
384
399
419
424
419
396
375
367
362
369
369
372
380
397
403
382
374
375
375
275
661
404
363
350
360
368
379
397
406
412
404
381
357
338
333
333
341
340
351
362
367
340
334
334
331
220
660
356
304
302
301
313
323
342
357
369
364
340
314
306
305
314
311
315
320
334
349
339
325
329
325
302
448
590
316
308
315
319
335
352
372
389
392
379
358
335
331
334
337
340
341
342
363
372
354
352
349
351
275
659
449
331
328
333
343
354
373
393
407
416
386
360
349
342
342
344
347
353
356
371
375
353
354
348
350
254
660
373
333
331
342
345
362
382
399
406
405
383
365
340
346
344
344
347
354
379
367
351
346
341
337
342
649
327
320
316
324
332
346
360
366
362
354
330
306
295
288
290
302
308
322
302
286
279
278
254
377
497
265
244
246
250
262
277
298
308
307
300
265
249
245
251
252
269
288
296
279
272
275
278
188
656
326
274
276
287
296
312
332
350
366
363
342
317
316
321
318
324
342
365
360
344
344
351
350
271
661
347
344
342
352
357
377
403
421
422
416
395
372
368
369
371
372
376
404
391
379
368
370
368
268
661
371
343
339
341
348
362
379
398
400
388
362
331
324
317
323
329
340
331
311
309
308
303
262
650
296
276
274
286
293
306
330
346
346
337
320
293
291
295
298
305
319
325
302
307
308
313
221
658
323
311
312
322
337
352
379
400
412
402
384
366
356
360
363
374
394
410
399
391
392
394
364
561
642
376
383
388
399
410
429
446
452
453
437
411
390
383
379
384
388
412
403
377
365
367
363
244
661
361
325
327
324
327
341
357
373
378
366
339
312
310
303
305
314
329
342
327
313
313
316
283
489
522
303
295
303
311
323
337
360
370
375
354
330
320
325
321
327
339
334
344
366
358
345
344
345
349
298
660
338
324
333
335
351
365
388
407
418
414
385
361
361
360
361
362
369
380
405
390
387
386
386
366
506
626
375
369
370
375
388
409
423
427
429
416
391
371
359
363
363
368
371
390
388
359
354
350
347
246
661
350
323
321
326
331
345
365
383
380
375
352
333
320
315
325
323
327
340
353
334
328
324
326
266
577
479
308
295
302
305
318
336
350
366
361
346
318
301
303
303
312
315
323
342
350
336
338
338
334
280
582
466
317
308
317
321
339
359
379
394
395
382
354
342
336
342
349
353
357
372
385
387
368
364
370
369
304
660
366
349
351
355
365
381
402
410
416
409
376
359
346
348
356
361
358
362
373
381
357
351
353
350
266
660
463
330
323
324
339
345
362
379
392
386
370
338
320
319
317
315
314
318
327
344
328
318
322
325
292
488
561
316
310
319
327
341
358
388
399
412
390
369
351
343
344
348
344
346
357
381
382
361
361
364
355
262
660
355
328
314
323
330
337
354
373
380
373
353
329
322
323
328
331
335
337
353
366
351
344
350
351
301
597
519
337
328
335
339
353
369
387
396
399
379
354
337
336
334
336
337
335
345
368
360
342
341
349
341
302
657
329
319
317
323
336
351
363
376
386
380
351
336
327
329
328
334
333
339
358
351
343
338
348
341
323
629
348
340
345
347
359
374
393
410
408
406
384
355
349
350
356
357
362
383
388
363
356
363
365
287
658
430
351
345
352
362
367
387
398
402
398
378
351
335
329
334
330
346
357
361
341
330
332
329
221
661
344
305
304
305
322
335
355
367
372
370
352
321
315
316
320
327
335
352
360
344
337
338
342
251
659
395
323
313
319
334
342
361
385
392
388
369
340
331
324
329
332
338
356
370
358
344
348
351
342
403
629
339
331
334
343
355
373
388
398
402
384
360
340
334
338
339
339
362
372
352
337
335
340
330
362
658
325
323
321
333
342
361
380
393
398
378
350
326
324
324
318
321
333
347
334
315
312
308
305
255
653
288
273
269
273
281
298
311
323
325
310
282
259
253
247
248
247
249
254
269
269
246
241
239
241
132
627
248
222
220
229
239
255
277
298
308
310
292
268
258
259
271
277
284
292
319
329
312
311
320
324
245
655
394
329
329
334
354
367
387
404
418
416
406
385
369
369
377
375
383
393
413
411
390
383
381
385
269
661
418
359
356
361
365
381
398
413
419
413
389
363
349
351
349
352
356
362
380
383
361
358
359
358
258
661
409
344
338
344
354
365
385
405
411
410
385
356
343
343
343
345
347
352
358
379
364
355
355
352
347
378
652
340
336
331
338
348
366
384
398
398
390
363
333
330
330
332
329
334
337
355
356
333
328
327
324
238
646
370
305
295
302
310
319
339
350
355
357
339
315
295
292
290
293
297
304
321
324
308
300
294
297
228
575
385
279
268
271
281
292
312
334
341
341
326
294
282
280
287
295
293
305
322
337
323
315
320
321
298
455
559
312
310
312
324
335
356
378
394
399
386
360
340
343
341
342
347
355
356
359
381
379
364
361
362
362
264
661
398
354
347
362
367
389
406
423
441
435
418
391
377
378
381
381
386
390
390
418
418
403
399
396
393
288
661
422
369
366
365
371
384
396
412
415
402
381
349
331
331
333
332
332
336
351
355
336
326
326
324
252
626
422
313
301
307
316
330
349
369
380
378
360
336
322
320
321
323
329
329
340
357
355
346
335
338
339
235
660
362
324
320
325
337
353
373
389
403
399
374
350
337
337
336
340
342
345
355
378
375
358
362
356
360
262
660
386
351
345
359
363
380
398
416
421
419
394
373
355
355
358
361
363
361
384
390
377
363
361
360
318
549
530
339
335
332
338
340
354
370
376
380
364
343
330
332
335
339
341
350
365
369
352
340
342
343
304
530
600
327
318
323
328
347
361
378
388
402
378
352
336
329
333
335
337
334
342
362
350
337
335
331
330
300
660
319
315
320
323
334
352
375
385
393
387
360
338
330
329
334
327
330
338
352
359
335
330
337
332
231
660
351
319
318
320
333
348
354
385
389
385
367
341
330
329
329
333
331
346
363
365
343
339
344
340
248
659
367
330
323
339
344
364
382
399
401
397
378
349
342
342
342
347
348
360
383
368
351
347
350
349
305
658
344
338
336
339
352
369
381
390
400
378
359
335
327
323
332
328
335
360
355
334
330
329
335
234
660
385
313
316
314
328
344
358
378
390
385
357
339
327
325
329
329
332
350
365
357
341
342
345
342
295
660
335
326
327
335
352
357
379
395
401
391
366
335
336
332
338
336
338
345
357
370
350
346
345
346
267
650
419
328
322
320
330
344
359
381
389
387
377
340
326
328
335
326
337
344
366
364
324
338
349
344
300
551
492
330
337
331
337
353
380
399
402
413
394
360
340
338
337
341
345
353
378
374
354
342
349
344
246
660
392
330
320
325
336
352
369
386
391
391
366
331
329
313
323
323
332
347
358
342
338
332
333
325
401
618
328
317
319
326
342
357
379
396
394
379
349
328
327
322
328
333
333
339
361
362
349
341
344
345
292
590
497
331
324
325
336
347
362
386
389
399
382
351
340
328
333
330
334
333
341
340
362
355
344
342
341
343
291
657
342
323
318
337
338
355
369
388
394
384
355
333
327
323
327
330
333
337
337
368
359
350
347
346
335
366
646
336
328
332
342
348
358
376
388
391
378
348
325
327
327
331
336
342
346
359
363
338
334
336
339
249
660
420
326
321
327
337
348
371
386
398
393
374
346
335
358
337
328
334
343
349
373
368
348
352
344
347
232
661
367
325
319
327
340
358
375
392
404
404
375
343
336
332
332
333
330
336
334
358
362
347
339
343
339
249
660
395
320
322
322
336
351
367
389
403
393
375
346
334
324
325
326
331
333
344
348
370
365
351
344
344
347
258
660
339
321
325
332
341
357
381
397
398
394
364
338
336
330
333
339
339
342
346
356
364
344
347
349
338
254
659
375
322
319
323
331
344
361
379
384
386
371
337
320
319
322
321
323
330
343
351
342
332
334
337
294
511
468
324
322
324
337
347
365
382
389
396
377
346
322
318
318
322
326
336
358
363
337
341
336
342
243
660
351
327
325
328
341
352
373
392
395
387
367
336
334
330
331
334
353
366
356
338
331
333
330
276
659
333
314
320
326
343
355
375
396
400
385
359
339
330
329
329
333
342
362
358
341
339
336
337
254
660
412
326
328
330
334
361
374
396
404
401
378
347
337
325
332
336
337
334
335
359
354
340
339
343
347
245
660
389
332
326
335
346
355
368
396
401
405
371
350
332
334
326
335
329
335
329
342
351
345
327
332
335
309
443
541
323
310
313
329
340
359
381
392
396
387
354
324
326
323
326
330
334
336
362
355
341
328
330
333
229
661
339
317
319
328
345
358
378
394
400
398
370
346
336
337
338
338
340
342
350
366
363
347
342
343
345
233
661
374
329
329
331
343
361
376
392
402
400
378
346
331
332
335
334
336
332
333
341
364
356
339
339
340
338
253
661
329
320
316
324
337
347
371
393
393
398
371
345
336
335
331
330
332
331
339
355
349
334
334
339
341
239
661
361
331
319
318
327
335
354
373
382
384
364
340
335
335
345
347
350
350
351
368
359
338
324
323
327
234
654
332
306
310
321
328
340
358
370
377
376
349
320
307
308
312
313
313
324
343
345
331
328
336
337
242
659
371
328
326
331
340
356
368
389
389
391
370
340
333
328
326
330
332
348
357
351
340
343
347
339
289
658
337
319
326
333
340
358
372
391
396
387
363
340
331
332
337
336
348
359
359
344
342
341
341
262
650
396
323
313
326
331
343
364
380
389
390
365
336
323
315
318
325
326
337
352
338
328
331
332
326
365
572
329
306
305
317
329
352
372
381
388
382
358
339
332
335
334
344
365
371
351
331
339
331
324
388
626
326
317
322
333
344
362
384
391
395
370
348
325
310
309
306
313
341
328
303
291
284
295
231
614
414
303
295
308
320
331
354
373
381
371
357
329
322
326
335
344
345
368
378
360
350
350
353
312
555
577
336
329
334
343
356
373
396
405
407
389
360
340
343
343
342
346
350
358
378
359
341
336
335
332
307
658
327
324
326
336
347
362
381
393
395
391
360
337
332
332
336
340
343
352
365
349
340
337
340
310
432
520
319
307
313
323
340
342
364
379
380
367
338
312
308
301
308
309
318
331
338
313
317
315
316
222
658
343
308
306
314
323
336
359
376
380
382
359
331
322
322
322
330
342
365
360
342
341
343
347
238
662
373
329
323
334
342
358
374
392
399
393
373
345
339
336
338
339
351
371
369
354
345
349
350
256
660
399
334
328
336
342
356
373
389
401
399
375
349
337
333
331
335
337
341
364
359
342
339
338
340
239
660
367
319
317
323
330
344
361
379
388
387
366
337
324
321
319
325
324
324
333
347
348
329
330
330
331
230
659
351
313
309
319
325
337
356
373
383
384
362
335
320
318
319
319
319
325
328
351
348
330
333
335
331
235
659
351
325
323
333
342
357
375
395
401
397
376
349
335
332
333
337
341
346
361
366
349
343
345
343
285
599
473
335
328
333
341
354
367
386
399
399
386
359
342
330
334
337
334
335
348
359
351
339
340
336
337
329
652
327
323
324
331
342
355
371
388
395
382
358
328
326
324
327
329
330
334
354
356
341
338
338
340
251
659
384
321
316
325
329
341
356
378
382
385
367
334
316
314
315
316
324
329
348
350
335
323
328
329
232
659
351
316
313
318
329
343
363
378
385
384
362
333
315
313
314
319
328
357
356
338
332
333
333
277
599
452
323
321
322
332
346
361
384
393
394
374
345
327
324
327
328
338
359
362
341
334
335
336
260
652
440
320
310
324
329
344
364
383
392
393
371
345
330
329
332
333
340
358
365
346
340
340
338
319
428
616
321
313
316
326
338
355
372
389
395
381
350
333
323
325
325
328
330
335
350
359
345
336
336
335
275
610
466
325
320
321
330
347
364
386
394
401
384
342
326
326
323
327
324
336
354
348
336
337
337
337
244
659
353
325
327
338
342
358
381
389
393
382
361
333
321
318
321
328
347
360
350
339
336
341
343
291
657
338
329
334
342
353
365
376
399
399
387
361
339
332
333
338
344
367
375
348
345
348
342
285
604
493
337
324
336
343
353
376
391
399
405
391
357
340
343
340
351
350
367
361
342
337
336
342
242
661
352
323
328
335
339
350
368
385
386
381
353
333
323
325
324
328
338
353
339
330
325
325
324
235
658
323
304
309
316
323
339
356
370
380
361
343
323
305
307
315
313
331
333
319
314
313
308
279
475
457
305
290
302
300
314
321
346
351
351
333
313
288
288
296
309
339
342
324
321
327
333
245
660
376
331
334
337
347
356
376
380
390
391
363
341
331
332
341
367
384
359
348
343
353
349
282
660
351
335
338
342
352
373
388
402
406
398
370
347
345
350
350
377
385
366
351
351
344
335
405
639
328
323
321
346
337
358
374
380
393
374
344
324
329
315
318
335
356
349
336
333
329
339
235
660
360
323
314
322
325
327
355
377
379
377
347
320
313
314
313
317
329
348
340
325
324
321
327
258
658
315
300
301
308
317
326
346
358
363
355
330
307
296
305
303
306
311
335
334
314
313
315
318
205
659
324
300
305
310
314
336
353
370
380
379
353
327
322
317
323
328
340
362
357
337
339
336
341
235
660
370
333
338
331
349
367
381
401
411
402
373
345
335
328
329
334
354
364
363
339
344
339
334
303
660
335
320
323
330
338
359
376
383
392
383
344
327
326
324
334
336
348
361
349
333
337
340
328
408
633
326
313
313
321
333
347
368
379
384
376
345
330
320
323
323
325
330
349
346
330
328
334
331
239
660
338
318
322
315
333
344
367
375
385
386
360
339
329
329
334
333
335
341
359
349
334
333
339
336
298
658
329
312
316
325
328
343
361
376
380
378
350
319
311
314
310
314
325
336
336
326
319
319
327
223
658
339
316
307
320
331
341
361
377
380
382
355
326
311
314
317
325
335
354
356
332
331
336
335
237
660
350
327
326
328
338
352
370
383
389
383
357
332
325
325
330
332
351
360
347
339
334
338
287
575
499
326
320
326
336
349
365
382
394
402
382
353
338
340
340
342
351
368
368
348
348
349
354
247
661
378
333
327
334
341
354
369
386
391
388
370
343
336
333
331
334
334
345
356
337
331
334
331
276
570
434
322
310
320
324
334
349
366
385
381
369
336
316
315
318
322
338
350
350
330
330
332
331
266
653
340
319
313
323
335
352
371
385
384
380
354
338
319
323
331
340
357
360
343
334
336
337
240
660
382
318
313
323
327
343
366
381
393
388
366
340
326
331
332
339
351
369
355
338
343
343
316
489
570
330
321
324
333
345
360
380
395
394
377
346
331
328
330
331
338
353
350
332
335
331
334
231
659
340
309
308
311
329
333
360
378
387
383
356
319
317
312
311
318
318
345
344
336
330
333
339
235
658
362
322
320
322
341
360
377
391
404
398
371
347
337
335
341
344
356
371
373
357
348
349
353
246
660
375
337
328
330
342
353
370
385
393
389
363
336
326
327
324
329
342
360
356
337
338
344
339
270
660
337
327
331
331
342
359
380
390
398
392
362
338
335
329
334
335
336
357
353
340
337
336
332
237
660
369
317
310
322
325
337
354
376
383
381
354
327
313
313
311
312
316
315
321
339
328
321
319
323
292
472
470
311
304
311
318
331
347
370
381
388
372
345
320
316
316
318
319
330
349
358
339
330
332
334
244
658
377
322
319
323
332
351
372
386
394
392
376
347
330
332
327
339
344
365
370
345
337
341
344
231
660
371
327
322
332
335
351
372
388
398
394
365
338
331
324
332
331
339
357
360
347
337
338
342
263
655
423
326
326
324
335
344
364
382
398
395
376
344
333
331
331
330
335
335
339
353
357
344
341
335
341
243
660
391
317
316
320
327
342
355
377
393
391
368
337
322
321
321
319
323
330
328
347
349
333
330
326
331
234
659
347
317
314
318
333
342
358
381
387
386
361
338
322
320
323
332
333
340
363
364
352
337
341
337
235
660
346
318
316
322
332
353
368
382
394
392
366
338
326
322
326
331
333
347
361
347
340
339
345
310
502
561
328
318
323
334
348
362
381
394
398
389
360
345
344
339
338
346
349
368
367
350
348
345
352
250
660
350
329
324
331
338
356
368
390
396
390
363
336
323
318
323
329
339
352
350
333
329
328
333
228
659
359
315
312
321
335
347
371
381
390
387
372
346
332
329
333
337
348
365
357
338
331
338
337
241
661
337
323
320
327
336
352
372
386
388
385
355
332
327
327
334
337
348
363
349
338
329
331
319
398
625
318
314
315
320
337
354
375
387
390
378
350
325
325
324
329
329
340
358
346
330
335
330
326
314
626
319
306
303
315
319
337
355
374
377
370
340
312
310
310
315
321
320
339
348
338
326
323
328
276
562
438
317
312
318
326
340
362
382
395
392
378
353
337
333
331
339
351
375
367
352
344
343
341
232
660
352
319
320
329
336
355
374
385
396
387
361
332
329
324
335
335
354
371
350
347
342
348
316
486
584
332
325
328
338
345
369
378
396
399
378
348
326
328
326
325
327
328
337
351
351
332
329
333
324
274
655
324
309
307
315
321
340
361
377
388
379
342
318
312
312
304
315
319
333
352
346
327
329
336
327
309
650
340
324
324
333
343
353
377
381
390
383
355
329
330
329
336
335
347
364
359
340
334
335
338
229
661
375
320
318
326
336
347
369
384
395
389
365
336
324
323
327
325
336
351
348
349
334
337
338
259
657
432
324
318
326
331
346
361
381
397
392
372
341
331
327
329
334
338
342
364
363
350
347
348
348
260
660
337
319
319
326
335
350
369
384
392
389
357
329
323
321
321
321
329
340
352
332
325
327
321
237
657
364
307
307
311
318
336
352
377
381
384
365
332
315
311
318
317
329
350
348
326
331
333
333
226
659
345
318
318
325
337
353
372
386
397
390
367
343
330
324
331
339
365
368
346
338
340
346
261
659
435
324
313
328
331
342
363
382
393
393
364
338
326
326
332
335
341
364
366
348
344
340
340
248
661
392
332
323
329
340
348
365
387
388
392
366
332
321
324
324
327
335
346
359
348
346
327
329
281
557
442
314
305
305
316
329
350
359
381
386
364
333
319
316
320
322
332
335
349
365
352
341
338
338
313
449
592
326
319
320
330
340
360
376
392
399
389
355
339
332
333
335
336
341
362
364
351
345
341
346
241
660
377
328
316
329
337
350
367
386
395
388
369
339
327
327
329
321
332
335
356
357
341
335
340
335
234
660
348
320
318
326
332
348
362
376
388
382
356
334
321
319
321
318
318
332
347
343
322
329
330
320
376
553
324
312
315
322
335
352
370
389
388
380
349
325
320
322
327
332
352
363
347
344
344
345
304
533
498
324
324
329
339
342
364
380
397
399
378
348
336
330
330
338
342
357
366
349
346
343
345
272
626
421
324
315
319
325
336
355
369
382
382
364
332
320
313
317
314
329
345
343
329
325
334
322
255
654
334
316
314
322
328
349
363
380
385
382
352
327
320
319
324
335
360
360
341
339
336
341
258
647
414
325
311
323
324
338
361
373
385
385
364
333
317
319
320
320
339
354
338
332
330
333
311
420
571
319
309
314
322
327
354
369
384
384
371
333
315
311
308
316
319
348
346
325
326
329
326
226
659
347
320
317
319
323
336
349
368
371
372
345
322
318
322
330
339
357
368
344
337
337
342
281
625
516
329
327
331
341
356
374
395
405
406
385
351
342
342
341
341
346
370
371
351
346
348
347
237
662
364
328
320
328
342
358
373
390
393
390
364
336
322
321
322
321
321
344
357
333
322
322
328
265
590
407
312
307
309
321
331
352
366
372
373
356
323
311
307
312
310
334
352
333
325
323
323
307
407
593
326
323
319
338
343
365
384
392
393
381
353
335
331
335
338
372
370
354
344
345
343
279
647
484
334
327
330
340
355
367
388
398
392
377
339
326
329
323
333
356
364
344
342
337
342
267
646
458
326
330
307
327
343
363
370
395
388
374
333
326
323
326
334
346
363
352
346
343
343
322
449
615
340
333
330
336
354
368
384
396
401
383
352
331
335
329
333
327
357
359
339
332
336
325
232
660
331
308
308
311
323
336
358
369
379
376
343
322
311
307
317
318
339
354
335
321
321
317
256
628
412
305
302
299
317
327
347
363
372
374
353
327
316
316
319
334
357
363
345
336
339
337
234
660
410
324
319
321
334
341
365
378
390
383
356
330
316
318
319
326
350
358
338
333
338
336
238
660
408
317
309
316
324
343
357
377
383
381
354
327
312
320
319
324
336
360
351
336
337
340
334
279
660
329
321
318
325
338
349
371
387
392
380
349
326
321
325
326
330
333
339
356
361
345
340
339
340
230
661
368
326
317
324
331
344
361
380
390
386
363
336
324
323
324
325
327
331
348
357
343
336
338
338
240
660
384
322
311
317
327
341
354
375
377
381
352
324
311
311
315
313
314
321
339
343
327
324
324
321
224
659
349
308
308
315
322
332
349
367
378
371
349
319
308
311
311
313
320
322
331
349
338
327
331
330
288
519
488
317
314
316
323
335
347
367
378
386
366
342
324
318
320
328
330
335
347
359
342
343
340
340
256
659
395
326
321
325
330
340
360
378
388
385
362
335
318
314
312
318
325
330
349
338
326
333
331
311
468
514
325
321
324
335
347
359
377
393
390
375
346
331
332
323
331
337
355
365
355
342
343
345
309
515
544
330
330
333
339
350
366
391
398
392
381
351
330
324
328
327
345
363
364
343
334
341
338
240
660
339
322
317
321
333
344
363
378
384
373
349
324
315
317
320
325
337
348
329
317
318
321
263
599
508
315
308
317
325
335
355
371
389
388
368
339
329
321
324
322
333
340
357
336
330
333
333
257
634
432
322
320
324
329
344
360
384
385
386
367
333
320
318
319
321
315
329
346
339
324
335
317
328
304
654
322
312
319
326
337
362
373
381
390
383
356
326
325
323
322
340
363
365
351
341
333
340
241
660
423
314
317
317
332
344
370
387
392
383
361
330
319
318
317
325
348
362
339
324
327
323
277
543
603
311
314
316
331
338
360
378
388
393
372
346
336
336
338
339
343
363
370
340
335
338
337
257
661
539
328
318
328
335
351
365
388
401
400
375
347
339
338
333
332
336
334
342
359
346
333
335
336
306
487
627
325
318
320
329
344
355
378
390
397
385
355
332
329
326
331
325
329
333
365
348
337
344
343
344
303
658
333
322
325
332
347
362
379
393
398
393
368
339
333
334
336
342
337
344
354
339
333
325
328
301
433
493
310
310
313
314
326
342
355
375
372
363
338
316
308
319
319
325
345
352
338
325
328
330
274
529
444
316
309
311
319
335
354
375
377
383
364
347
328
320
322
327
346
365
352
341
336
338
337
256
659
357
305
312
329
338
355
368
372
388
384
344
329
333
331
329
338
347
363
354
345
345
346
346
283
660
346
327
331
338
347
360
374
393
389
392
366
340
331
339
334
333
341
356
354
338
334
335
328
236
658
370
313
305
314
325
335
351
369
381
376
361
327
313
318
313
319
320
342
356
343
327
328
329
288
521
473
316
311
314
324
342
357
377
389
393
375
355
335
331
334
336
340
358
356
337
335
327
332
258
645
466
318
313
323
326
342
362
375
385
387
364
335
325
323
320
319
325
342
347
325
323
325
327
217
660
360
303
306
314
324
337
358
370
378
370
352
320
300
306
302
305
312
328
341
319
315
316
321
266
554
456
312
304
317
324
343
360
380
392
391
372
344
327
319
323
330
332
346
361
350
333
332
333
328
329
658
318
313
317
327
334
351
373
384
395
379
355
336
333
335
337
339
341
364
363
348
342
340
346
255
661
480
329
323
327
337
348
364
383
392
395
374
344
335
338
337
334
340
337
342
363
358
338
336
340
337
232
662
332
317
309
320
330
345
367
379
388
381
359
334
329
329
327
329
332
329
331
347
350
331
324
328
325
204
661
377
302
300
303
313
324
343
356
364
364
347
318
310
292
300
303
303
309
313
335
333
316
312
310
316
201
658
345
301
299
308
319
337
353
370
377
377
361
327
319
315
320
320
327
337
353
340
332
330
333
319
382
587
332
321
324
334
341
357
378
382
384
372
342
322
314
320
320
324
338
351
342
334
331
333
322
337
658
321
314
316
323
338
352
375
384
391
383
345
337
326
327
331
333
350
358
343
325
333
332
303
469
545
317
307
306
324
333
354
365
378
379
365
339
325
321
317
324
344
360
350
329
333
327
327
281
659
325
319
319
329
343
359
379
393
401
383
354
338
333
330
338
349
370
362
339
338
338
334
235
661
337
308
306
312
321
341
360
374
376
371
342
320
318
318
319
325
335
352
343
328
326
331
331
234
661
324
309
310
317
326
341
363
378
384
382
352
330
327
321
328
324
324
327
344
348
329
326
321
322
243
617
412
314
306
313
323
328
351
374
386
383
361
336
321
320
319
329
326
335
362
355
344
337
339
339
237
659
376
327
325
328
342
353
372
390
397
389
374
343
336
336
337
346
355
381
378
353
353
353
353
241
661
361
333
329
334
344
361
380
393
396
393
359
337
330
326
328
333
355
361
346
336
337
335
308
456
598
322
309
310
319
328
349
367
377
381
361
331
314
312
310
313
316
326
348
336
320
324
322
320
286
659
314
305
303
311
321
337
357
375
382
372
337
318
313
311
311
314
315
326
341
326
317
321
323
275
507
526
306
298
303
309
323
339
361
367
375
358
324
312
311
308
314
311
322
343
341
327
327
327
332
226
659
359
324
320
327
338
351
374
391
402
399
373
343
336
334
332
340
348
367
366
347
343
350
345
235
660
370
335
329
338
345
361
385
397
405
397
368
342
331
328
330
337
351
362
345
332
331
329
310
421
605
311
299
298
306
315
334
354
361
361
346
312
293
292
292
294
299
312
324
308
301
301
302
263
484
508
293
283
287
299
309
330
350
364
371
353
324
310
310
314
317
320
335
348
331
324
327
331
302
445
593
311
307
309
316
327
344
363
377
381
361
334
314
314
312
312
314
329
343
336
324
325
327
317
393
564
316
316
314
329
338
353
377
387
394
382
352
337
331
334
334
340
364
375
360
350
351
356
327
496
598
346
342
344
352
361
373
391
399
398
378
348
333
330
335
337
344
368
358
334
331
333
332
251
661
324
315
313
320
333
342
363
377
381
369
342
320
318
319
317
321
339
347
325
319
318
324
262
573
486
309
295
303
313
325
339
363
376
373
355
327
317
314
315
314
322
334
343
326
315
317
318
263
563
486
306
298
306
315
330
345
366
376
383
364
336
322
328
329
330
333
339
357
345
330
333
330
316
392
637
318
312
311
321
330
346
364
374
382
369
338
323
319
319
316
316
333
339
320
311
311
311
247
582
423
295
290
293
302
313
332
349
360
364
348
319
309
309
310
312
319
339
332
315
314
320
319
216
660
324
305
306
310
325
337
356
373
377
380
355
334
331
334
335
339
350
356
337
329
334
329
270
579
404
311
304
313
323
334
351
361
376
374
357
332
309
308
310
318
334
339
315
314
320
319
235
656
351
313
315
326
341
355
372
385
394
394
377
345
334
329
335
358
365
348
336
335
332
302
498
517
323
319
321
324
334
352
364
368
365
349
318
308
301
301
319
334
327
304
300
303
302
268
651
304
289
290
303
312
330
349
360
368
356
326
311
308
310
320
339
336
321
313
318
319
208
660
336
311
307
317
320
330
353
367
376
372
337
314
307
307
308
323
339
335
324
323
332
317
416
585
324
315
319
328
338
357
376
390
392
381
345
336
336
339
355
378
375
351
350
355
355
296
661
346
326
321
329
334
347
372
381
387
375
347
330
327
332
335
358
351
334
322
322
319
211
661
322
295
294
302
313
330
350
366
375
360
333
314
312
309
310
323
339
325
305
304
306
284
399
535
299
292
296
308
318
338
356
372
373
359
331
315
315
322
326
347
357
337
327
330
328
240
660
425
325
318
328
340
354
376
387
401
398
373
343
339
339
339
340
364
362
343
340
341
345
243
662
343
325
320
327
338
345
364
373
379
371
335
315
307
308
305
307
320
325
304
296
299
298
202
650
305
277
279
284
293
313
328
345
353
350
324
304
295
293
308
318
340
338
322
317
319
311
355
618
321
311
317
321
334
349
367
379
380
371
344
329
326
332
336
351
367
359
344
348
350
291
642
527
351
347
348
355
367
386
396
397
394
362
348
329
339
329
326
350
366
347
353
348
353
263
661
365
339
328
335
345
349
367
378
377
370
344
322
317
333
317
328
338
340
318
317
319
321
256
649
316
273
274
279
290
301
308
325
327
319
290
266
258
285
326
458
284
292
280
291
277
298
250
578
247
238
257
278
256
323
333
350
357
314
298
281
283
258
281
280
310
312
252
260
252
221
434
417
251
237
280
279
376
323
361
373
351
346
274
283
278
283
283
298
340
319
317
327
340
252
661
348
364
364
363
362
376
412
430
417
401
368
372
359
352
373
378
366
360
360
359
358
241
661
377
333
348
341
377
383
392
426
446
458
396
358
364
361
354
362
365
361
350
374
410
287
657
412
326
376
368
381
412
397
400
400
402
376
355
337
376
371
383
405
343
350
359
354
445
628
348
340
348
366
378
408
435
419
420
406
373
345
335
342
361
370
363
332
343
334
258
655
437
312
306
306
320
332
352
363
367
375
330
313
303
298
303
339
327
306
306
313
307
248
659
306
295
299
299
324
333
362
378
370
356
329
317
313
334
332
343
337
322
318
320
218
660
406
311
298
311
314
337
340
363
358
352
322
288
289
273
273
299
297
270
259
251
239
147
654
232
198
194
205
199
216
239
236
242
216
192
162
161
159
167
176
200
185
175
179
175
99
551
268
188
183
198
221
254
275
297
321
318
296
279
273
277
281
298
334
338
320
326
335
322
443
655
337
339
335
357
374
396
413
437
438
434
390
386
385
394
394
406
427
414
400
400
404
299
662
598
401
387
397
413
429
444
460
464
459
433
389
400
389
393
411
424
403
396
391
390
268
662
468
369
365
367
373
388
404
415
424
407
373
350
344
350
352
371
387
365
365
348
353
225
663
426
328
326
333
340
345
369
388
393
383
351
328
319
321
323
323
347
343
325
325
326
305
380
647
303
300
296
309
316
333
360
367
375
353
324
308
308
302
310
307
309
315
329
311
306
308
311
183
660
320
285
279
286
295
311
329
353
364
366
335
312
308
301
320
325
336
353
366
355
358
365
369
267
661
379
357
357
353
360
386
395
411
394
395
377
344
341
352
339
365
374
382
376
343
345
343
251
661
375
326
322
326
326
346
362
373
380
360
339
327
301
290
291
304
322
307
289
272
264
260
212
638
234
222
218
208
215
226
236
241
234
208
196
172
165
165
174
189
192
184
183
168
186
69
536
232
158
151
188
193
229
239
279
286
273
264
229
225
241
238
243
259
300
313
289
296
310
293
442
635
335
342
372
397
423
446
477
485
453
441
388
373
372
366
373
380
398
414
444
427
409
404
402
294
662
525
395
392
409
428
441
460
468
474
471
447
419
410
401
405
397
408
415
422
433
413
403
399
394
296
662
415
372
372
380
386
403
418
430
431
423
392
355
338
333
335
329
327
333
335
311
299
290
278
168
633
283
236
224
221
223
234
248
268
262
262
234
205
190
188
193
192
203
228
220
208
210
218
215
227
523
238
223
231
251
264
295
308
331
342
333
311
299
300
303
314
325
347
364
344
349
354
360
288
657
469
359
357
367
382
398
414
432
448
445
431
400
387
390
395
397
407
419
427
407
403
405
405
306
661
424
389
393
400
404
415
430
450
448
448
418
392
381
380
379
383
390
400
401
386
378
384
375
279
661
414
359
352
355
367
376
389
408
416
408
387
356
349
343
346
344
340
357
367
352
337
340
336
303
493
495
319
303
305
311
324
333
352
365
367
345
316
299
293
298
296
304
319
327
316
304
309
306
214
656
336
292
300
311
313
326
350
366
377
378
357
333
319
319
321
330
350
360
342
327
324
320
294
412
519
295
274
272
274
276
291
302
311
305
285
253
227
216
219
211
221
232
229
217
205
203
204
107
596
216
198
202
208
219
240
262
283
293
290
267
254
259
269
273
284
303
331
330
320
324
332
338
278
659
343
336
348
358
373
388
411
431
440
436
403
386
391
390
391
397
407
419
432
417
410
413
410
332
661
520
390
387
399
400
417
430
452
456
450
437
395
378
376
376
374
381
402
406
390
380
379
381
321
640
532
365
356
360
370
375
398
421
432
427
412
376
369
357
355
359
372
389
378
353
354
354
342
365
654
336
327
333
345
351
368
381
395
400
388
352
338
328
339
335
345
366
369
348
340
335
321
208
660
335
295
292
301
309
314
330
344
340
332
299
265
255
252
252
253
269
272
259
249
244
248
202
446
371
243
230
246
261
276
292
319
326
339
314
286
280
288
291
288
307
324
322
314
312
320
324
246
659
340
317
327
335
341
357
375
394
401
394
372
348
345
340
344
350
370
366
347
332
333
331
251
658
395
320
306
312
317
328
341
355
359
354
326
295
284
283
277
286
305
309
283
273
281
279
183
656
329
267
261
271
281
301
318
342
349
350
328
303
295
300
302
317
339
343
326
328
330
337
236
661
378
340
337
345
356
371
395
415
425
421
395
374
373
376
375
387
410
408
393
388
390
386
284
662
425
372
378
380
397
409
428
441
452
443
412
391
380
380
384
381
396
407
383
373
376
379
288
661
447
359
357
355
371
380
393
419
417
417
392
361
348
347
346
351
366
378
356
352
355
358
301
613
459
334
328
336
343
354
370
383
388
394
365
335
320
312
310
312
321
337
323
305
288
295
288
267
594
273
258
262
262
272
289
310
319
324
307
279
260
259
260
266
277
303
299
289
289
293
298
222
658
310
295
301
308
321
342
359
378
385
372
348
330
326
329
337
343
343
357
377
373
361
364
366
343
498
618
353
347
348
359
363
380
401
415
413
399
362
349
344
340
343
340
349
364
377
348
353
355
353
256
660
360
344
345
344
362
380
396
414
424
416
388
365
357
357
358
365
371
394
391
372
368
363
363
254
661
372
340
331
338
338
354
369
386
389
377
353
322
314
314
315
321
326
343
353
336
332
327
331
234
660
381
319
310
323
333
343
363
387
390
391
365
338
328
328
329
336
338
346
359
366
356
352
349
344
260
660
410
330
326
330
344
357
374
394
407
406
380
351
346
341
350
349
358
364
385
389
376
375
368
370
288
661
376
361
363
369
378
391
414
427
427
423
388
363
347
351
347
348
346
363
369
353
340
338
335
304
489
536
316
308
307
314
325
342
365
379
377
359
328
314
311
311
318
318
330
347
350
336
331
331
332
232
660
366
323
317
323
334
347
363
385
397
398
371
341
334
335
331
341
338
345
363
363
346
351
351
345
280
660
351
336
336
359
361
375
396
416
416
417
388
362
357
357
361
364
370
397
399
383
375
379
380
299
659
474
364
361
368
377
392
404
416
430
426
405
374
363
358
354
358
361
381
388
366
353
351
352
246
662
405
331
322
328
337
346
362
380
391
382
364
326
316
317
316
319
330
344
334
318
315
318
307
329
634
302
293
298
308
321
336
354
373
376
363
335
319
315
322
325
331
332
347
357
349
335
336
331
279
582
457
317
318
320
333
340
357
380
394
391
377
343
325
320
322
316
322
343
348
328
314
315
309
264
495
426
286
279
268
278
285
303
313
318
322
300
271
253
246
249
245
254
284
278
259
257
256
257
149
658
285
249
251
261
273
290
320
337
352
348
324
300
299
301
306
309
322
351
346
327
332
332
341
270
661
337
337
340
347
358
380
403
418
428
416
385
368
364
364
372
371
386
403
392
379
382
379
377
390
660
366
368
366
372
385
399
418
430
429
422
390
365
368
367
369
372
373
397
389
373
365
365
367
266
661
354
342
337
348
351
364
381
397
403
394
371
346
343
343
340
341
348
365
360
345
347
339
344
241
659
354
326
328
336
348
357
377
402
411
411
383
363
353
356
355
368
384
405
397
381
383
381
389
352
659
375
372
372
381
389
410
425
436
441
424
396
376
367
364
365
381
396
383
366
353
355
347
244
661
352
330
324
324
329
345
362
376
382
375
351
326
316
318
319
325
335
353
347
327
327
333
324
304
656
319
313
316
326
331
352
371
389
392
378
355
329
326
328
329
330
338
357
355
341
336
336
344
239
659
366
320
321
322
331
348
365
382
393
388
369
343
329
331
333
338
335
339
354
363
348
339
342
345
273
648
417
332
329
334
346
358
379
403
414
413
401
374
360
358
360
366
366
377
402
403
386
387
395
395
294
661
426
379
378
378
392
407
418
433
437
431
407
375
361
355
356
355
361
371
378
358
345
349
345
325
436
597
326
313
315
322
330
345
370
378
382
370
336
323
316
317
319
322
326
340
355
349
331
336
335
337
308
658
334
319
322
327
337
363
380
393
400
395
365
345
338
337
341
347
350
354
373
371
351
350
351
355
244
660
363
328
320
323
335
344
356
372
379
377
343
316
301
297
298
292
304
297
311
320
305
293
292
290
246
464
417
269
254
251
257
264
280
295
300
299
278
245
216
205
205
204
205
207
214
216
193
178
177
169
69
511
209
126
118
121
124
135
153
166
173
173
158
126
119
121
127
134
135
149
178
182
170
176
186
190
92
645
223
208
218
234
254
275
304
336
352
361
345
332
330
346
346
361
371
385
411
411
400
410
417
424
396
662
423
419
422
432
447
462
487
498
506
496
471
453
448
450
449
457
451
454
472
473
453
452
446
445
343
662
565
412
413
409
415
423
434
449
458
447
426
391
366
359
348
342
328
336
338
326
296
288
281
269
215
561
246
217
212
215
223
228
244
255
255
241
216
191
185
181
186
193
202
231
223
210
214
220
224
144
608
249
228
230
247
260
287
307
323
332
330
314
296
287
294
304
312
343
349
331
329
338
340
272
657
486
347
344
357
363
382
403
421
435
431
414
387
379
382
381
393
404
423
414
397
397
397
402
352
664
397
387
392
396
413
424
445
460
462
450
423
406
402
406
404
409
415
432
409
396
395
395
373
529
661
368
371
376
384
392
408
433
443
445
427
398
380
374
374
371
375
393
402
383
375
373
372
348
522
614
360
356
355
361
381
394
408
417
416
399
363
352
349
347
349
355
379
368
340
332
329
329
222
659
322
301
293
299
299
315
333
344
343
332
304
285
282
281
286
300
327
313
296
294
303
296
224
659
302
294
300
298
312
336
356
369
376
363
337
316
317
319
318
327
337
355
358
345
338
344
349
244
660
400
340
336
345
354
365
387
402
410
407
381
357
350
349
350
354
362
378
385
367
363
364
371
279
661
453
357
362
357
357
383
392
419
423
421
400
368
369
369
373
377
375
395
403
389
377
375
380
312
658
514
359
359
362
371
378
399
414
424
418
400
371
357
359
354
346
359
368
379
355
349
360
356
268
660
373
350
347
358
366
386
405
423
424
421
403
374
369
370
364
376
391
403
384
365
365
357
332
460
581
328
314
309
315
321
333
346
354
350
325
299
271
262
264
274
285
296
270
265
260
253
184
579
318
242
243
247
254
267
291
310
321
311
297
273
264
266
273
278
299
321
305
297
296
309
300
367
603
313
313
320
323
348
370
393
412
420
402
389
374
378
375
388
399
415
430
427
403
403
413
387
514
660
392
384
382
392
402
414
427
442
426
403
372
342
347
341
336
355
361
343
311
288
281
256
286
563
222
200
185
184
187
199
208
215
211
182
160
132
126
120
128
135
164
141
127
125
129
109
177
467
126
128
130
148
173
201
226
245
257
250
240
234
231
240
254
265
296
304
284
284
285
291
170
661
312
278
274
288
297
315
339
356
369
369
352
320
324
328
339
335
342
360
380
382
361
365
367
368
327
661
360
367
370
379
394
421
434
453
468
465
444
429
418
420
422
424
429
449
440
420
417
422
418
345
661
408
399
394
403
414
427
448
457
460
455
427
398
396
400
396
394
403
421
424
396
391
393
395
296
660
403
384
378
378
384
397
408
416
413
416
381
360
345
332
341
344
369
353
331
304
302
289
194
644
312
257
245
246
243
251
261
276
274
266
249
216
211
203
207
225
244
242
222
218
228
229
149
623
246
238
237
243
263
282
307
324
333
333
308
297
298
300
314
335
355
352
342
345
351
346
423
648
359
363
367
372
392
410
435
442
448
438
410
398
394
399
400
415
432
430
412
407
415
412
347
662
401
389
397
397
401
419
431
444
446
439
412
384
381
381
377
380
392
408
388
380
379
378
328
617
527
362
354
365
368
385
401
419
428
426
408
380
372
360
357
371
383
402
392
372
369
363
366
372
658
357
359
349
336
357
369
388
381
395
378
342
332
321
324
321
342
359
344
332
335
330
315
440
605
328
315
324
337
359
349
383
388
387
371
346
336
333
337
335
349
373
365
343
339
343
340
283
660
332
319
321
330
327
350
379
381
389
381
342
320
316
316
317
316
330
344
332
314
314
312
294
423
555
296
285
287
295
304
321
336
348
340
334
304
294
284
289
290
291
300
318
318
304
301
306
304
236
657
310
298
301
305
314
330
352
375
376
370
345
324
325
330
327
335
350
366
358
344
343
351
339
410
619
337
329
353
353
362
378
405
410
420
410
375
358
364
362
364
387
406
393
389
379
383
375
471
645
382
383
382
383
397
416
428
436
440
418
391
373
367
364
366
383
391
367
356
349
351
301
575
523
341
331
343
345
353
372
391
403
395
382
355
337
335
339
345
361
356
340
331
333
318
236
659
309
285
281
280
284
290
302
310
305
290
252
223
223
210
216
225
230
211
193
187
190
121
457
268
164
153
162
167
180
195
218
229
237
212
193
190
192
203
216
238
250
243
246
260
259
180
640
322
290
295
308
323
347
371
392
409
414
389
370
374
380
392
397
417
442
437
425
421
435
424
491
661
416
422
423
436
446
466
483
493
493
485
453
443
436
436
435
467
462
437
429
423
419
319
662
516
389
377
382
391
396
416
430
433
416
392
367
355
347
350
370
376
363
348
343
341
321
435
624
324
323
325
333
338
358
378
388
388
365
340
327
323
330
336
345
365
350
337
336
332
322
351
641
310
308
306
309
326
332
354
362
365
344
310
293
283
283
276
277
269
287
289
266
252
255
249
140
615
251
220
218
215
220
239
251
268
275
273
239
223
213
216
217
227
234
251
274
270
257
264
266
256
377
513
290
288
293
309
324
344
371
386
388
379
351
338
343
344
351
368
395
391
373
368
372
376
278
661
376
358
361
361
369
390
404
425
429
415
384
368
357
359
356
366
367
381
388
376
367
368
370
302
645
522
353
346
351
359
366
383
406
418
412
389
359
347
348
343
347
354
353
377
384
369
367
362
368
269
661
435
350
348
352
361
371
394
409
420
408
383
349
341
341
333
340
338
339
353
370
370
353
352
357
347
242
661
357
325
332
324
343
356
374
392
404
394
369
344
331
327
332
338
345
359
374
383
365
364
362
367
270
661
386
353
354
359
369
382
404
418
419
401
385
349
340
338
337
337
339
345
367
362
340
337
330
328
220
660
329
298
299
304
308
322
343
359
363
352
325
294
295
289
292
292
297
301
319
311
296
291
293
288
296
625
277
263
266
272
277
297
320
333
337
324
291
272
276
272
271
280
280
287
296
314
303
291
296
292
265
464
492
294
288
296
304
319
336
368
392
391
376
346
332
331
336
346
346
363
368
391
395
378
374
384
383
337
661
382
374
390
386
410
425
439
458
458
445
420
393
384
385
383
383
388
395
414
391
374
371
376
315
586
577
349
340
342
350
356
383
398
410
408
389
354
342
339
342
344
345
359
376
367
347
347
349
341
327
660
334
330
335
335
345
366
388
406
411
397
366
347
345
346
346
350
350
356
368
376
364
352
349
346
255
660
432
327
314
314
323
327
340
353
363
353
321
281
263
247
245
236
224
222
212
230
227
198
192
184
182
80
520
210
148
143
142
152
166
183
206
214
220
203
184
178
186
181
206
221
245
259
235
233
235
239
154
634
311
271
269
281
290
301
324
327
336
337
316
294
273
304
321
326
367
379
377
354
350
377
363
481
660
394
409
406
414
417
454
477
503
502
493
463
443
453
458
458
487
511
501
482
483
484
464
361
662
433
402
395
399
414
430
435
446
438
411
375
336
323
322
328
327
342
360
344
350
352
358
293
651
441
346
346
336
347
349
362
381
387
379
367
340
324
330
331
340
363
366
357
351
352
359
304
630
503
355
354
349
359
363
379
395
399
403
378
356
333
332
334
340
356
361
344
328
331
335
250
656
417
320
309
318
323
339
357
379
389
387
364
338
333
334
337
342
361
372
354
345
347
351
295
612
497
341
338
341
348
362
379
398
413
414
395
362
358
357
360
361
363
373
377
366
354
352
354
278
653
440
351
340
355
351
366
391
400
415
413
391
367
355
346
358
358
369
389
388
371
371
372
366
273
661
422
357
346
357
364
373
390
410
407
407
369
348
329
326
330
329
364
357
333
325
325
325
217
661
351
304
301
310
313
323
344
358
361
349
325
294
289
289
290
299
315
314
294
295
290
295
191
658
300
270
273
285
290
302
328
343
356
345
315
292
284
281
275
280
297
305
289
289
301
293
224
623
375
299
308
311
326
331
350
372
371
372
343
310
296
293
284
294
305
315
304
277
274
271
248
317
504
242
229
225
228
235
247
267
277
278
262
234
221
226
227
238
264
274
259
254
258
260
216
537
421
276
277
290
301
323
348
373
383
391
377
354
344
351
354
359
375
402
394
381
389
386
390
383
661
387
393
392
404
418
432
453
470
469
464
428
415
414
412
409
415
427
440
427
416
411
415
395
519
661
392
395
391
401
408
428
439
457
445
436
403
388
379
380
379
381
378
402
397
376
375
375
365
369
660
348
350
351
357
369
378
398
412
412
405
373
354
346
341
341
344
349
367
360
334
340
336
329
340
643
320
314
315
318
337
344
367
378
382
373
341
328
326
326
325
332
335
362
350
335
347
351
349
288
660
334
326
329
332
338
344
356
367
362
348
308
282
269
261
249
247
248
253
224
217
207
197
152
374
296
154
141
138
137
152
158
175
178
173
167
138
127
126
125
129
146
164
168
154
166
170
176
102
556
201
200
204
222
242
269
300
313
331
331
325
306
314
322
332
353
377
379
362
376
384
382
379
660
390
399
406
416
426
446
466
483
484
479
450
433
436
431
433
446
453
442
421
422
421
392
512
621
390
384
391
391
400
414
431
436
432
416
393
369
369
361
370
384
389
361
359
358
351
256
659
362
324
326
332
332
362
371
392
390
389
361
341
329
337
339
359
365
342
338
332
339
258
659
420
330
325
336
334
345
372
381
390
391
368
343
340
337
348
358
380
364
359
356
365
307
632
531
358
361
364
374
385
402
422
427
424
396
373
357
359
350
360
378
371
354
350
354
350
292
659
348
333
334
341
347
367
381
401
401
387
355
341
337
335
346
360
380
372
354
345
347
344
339
656
337
329
325
332
346
353
375
386
382
365
325
306
300
299
299
318
326
308
289
287
272
207
562
354
241
228
226
233
239
254
270
273
265
232
204
197
197
188
197
210
235
230
212
216
234
200
353
457
232
228
236
253
271
295
324
340
355
337
301
293
310
316
320
321
326
371
375
363
374
378
368
349
661
368
383
380
378
401
407
432
447
440
425
393
372
365
364
381
375
393
407
415
409
412
415
389
551
661
361
392
426
410
426
447
448
474
458
424
441
407
455
411
395
379
419
439
417
388
367
387
280
660
351
358
314
339
292
336
343
344
364
344
316
277
282
276
274
276
270
284
272
288
268
278
221
570
283
248
237
251
267
269
299
315
309
301
296
281
268
289
280
295
329
337
327
317
328
319
308
635
324
328
320
341
343
351
384
393
400
391
359
361
349
360
371
398
390
377
368
380
362
247
661
382
356
353
345
364
373
389
407
412
402
382
351
359
341
361
372
393
377
364
361
372
263
660
450
350
335
337
348
362
384
404
410
396
378
351
343
344
349
354
380
383
362
359
354
348
307
660
338
318
333
335
352
366
387
402
410
389
365
347
341
339
344
343
361
363
349
339
327
325
252
570
390
273
256
264
257
269
288
298
309
304
277
245
231
224
227
229
235
256
260
246
237
240
244
156
591
287
236
234
246
256
270
300
316
328
330
309
295
281
285
293
298
312
343
336
320
321
323
318
338
654
327
317
323
332
348
370
386
398
403
392
367
354
351
356
355
364
388
396
380
377
377
381
313
660
568
373
368
379
385
399
416
434
443
447
423
399
389
386
389
393
390
395
402
414
401
396
394
393
294
662
487
372
364
370
378
392
404
420
427
432
403
379
358
355
356
363
362
364
361
371
384
370
367
363
367
304
626
499
354
345
352
355
367
386
401
414
410
389
358
345
335
332
326
330
338
359
348
329
317
311
307
200
658
311
276
262
269
269
283
298
303
311
298
273
245
234
233
232
239
243
264
271
251
253
253
256
165
621
313
250
251
258
272
294
316
335
352
355
335
310
304
312
317
320
328
332
352
366
357
352
355
352
283
659
480
356
350
355
369
377
400
422
437
432
413
392
378
376
371
374
371
373
384
395
405
394
387
392
390
302
661
472
373
368
371
379
391
415
426
437
441
408
380
368
363
358
360
363
380
387
365
357
358
343
264
644
409
302
293
287
284
288
294
300
297
279
251
211
191
182
171
171
176
194
177
160
148
146
140
58
556
137
124
128
140
151
174
200
223
225
226
213
193
202
217
226
240
249
280
291
282
287
300
306
209
661
341
324
334
348
363
387
421
432
450
440
423
404
400
407
411
419
429
431
461
458
447
440
441
444
364
663
457
420
423
424
436
452
470
482
484
478
441
419
412
410
408
403
404
407
415
429
402
393
394
396
301
660
473
363
347
357
357
368
380
391
399
392
369
336
316
319
308
307
303
310
327
326
313
311
309
311
206
658
336
297
300
307
321
338
353
373
384
373
356
330
321
322
324
332
350
370
360
343
350
347
342
390
638
342
329
337
338
355
368
390
395
401
384
351
337
333
336
338
362
372
363
345
338
344
311
455
597
324
317
325
331
341
363
385
393
390
378
349
338
337
343
352
363
380
377
362
360
365
358
365
660
349
340
343
349
359
373
395
410
414
400
367
349
348
353
348
345
358
370
365
352
346
348
342
361
643
341
337
341
337
352
366
390
401
410
383
364
344
339
355
345
351
372
381
368
352
355
354
317
515
569
340
327
335
340
347
367
388
392
390
369
336
318
324
311
317
336
347
338
316
317
312
304
353
613
299
288
279
296
305
322
344
357
359
338
307
298
294
300
294
299
309
326
317
308
310
315
289
440
592
310
298
309
319
330
354
381
390
397
381
353
334
339
343
339
342
347
360
362
340
336
327
334
218
661
338
300
300
299
303
316
330
351
356
348
317
291
279
284
282
279
285
286
310
296
280
280
284
264
361
521
269
257
264
275
283
297
321
335
336
325
293
281
282
281
288
289
302
326
320
311
310
306
302
335
555
306
298
307
315
329
348
373
393
404
382
368
344
345
349
356
375
390
401
384
377
386
378
293
661
413
381
379
390
395
411
437
442
442
434
416
389
378
383
387
405
413
397
385
373
376
336
518
606
351
345
340
345
355
373
393
398
394
373
348
332
333
332
346
363
360
345
334
340
330
220
661
339
303
301
298
309
318
336
343
347
333
299
279
266
269
262
270
285
277
263
257
256
252
145
649
249
228
227
232
239
257
285
299
304
298
272
252
251
258
263
275
302
310
297
293
307
306
216
656
324
307
308
320
332
361
384
394
402
396
372
358
346
349
358
376
402
401
378
377
382
379
325
661
376
369
364
374
380
393
414
429
426
411
378
360
353
352
375
391
382
366
372
365
359
375
660
350
345
345
356
361
382
402
422
413
398
371
361
366
365
370
386
402
394
377
384
376
340
576
621
356
358
358
362
371
390
405
415
405
383
348
337
328
321
322
316
337
341
322
312
304
303
192
657
319
274
256
259
263
282
299
316
309
300
269
240
232
223
220
231
245
260
234
225
224
220
128
576
269
201
190
201
209
220
252
274
287
281
260
240
241
234
251
262
290
287
279
280
291
282
306
618
291
291
295
299
321
349
368
392
395
386
356
354
351
351
363
405
413
403
399
396
398
333
661
581
410
403
414
418
433
448
464
466
456
442
405
399
394
409
419
439
428
414
399
407
362
615
658
369
370
379
378
390
407
427
429
434
413
384
365
370
364
376
394
399
374
361
354
360
304
661
332
335
331
333
345
364
381
395
393
383
348
347
331
340
344
366
371
378
336
336
352
302
529
591
337
310
314
348
337
374
383
396
384
361
348
345
353
336
380
363
383
363
365
339
342
285
661
319
322
331
329
362
371
403
407
416
407
369
364
354
389
419
343
364
359
353
356
313
456
603
302
316
299
323
347
338
363
383
387
361
343
330
341
343
342
353
343
324
298
295
258
494
394
257
257
242
240
236
248
250
254
238
229
194
172
165
156
166
170
140
103
109
87
0
497
103
55
57
72
80
98
124
126
135
145
133
133
127
150
173
194
206
208
199
224
203
368
428
254
268
276
300
321
355
375
397
406
402
403
403
407
425
449
473
461
442
450
468
361
662
608
460
456
473
472
495
509
524
534
517
502
482
495
495
509
520
525
495
502
489
444
659
654
441
451
451
452
465
492
503
507
518
498
469
456
440
452
475
478
438
424
431
413
473
659
395
393
378
375
389
396
417
405
406
382
365
346
333
359
375
369
346
333
332
267
589
420
298
282
290
288
302
315
326
334
325
305
296
283
297
310
331
316
304
301
296
197
659
336
295
295
301
318
327
341
366
355
353
335
324
324
322
338
359
352
333
331
337
282
585
447
320
322
331
330
338
355
370
379
382
363
344
331
335
338
355
364
350
328
324
325
192
658
316
276
270
276
271
286
287
282
273
269
245
224
209
201
208
207
180
145
141
131
0
601
129
101
108
114
116
137
158
180
186
187
168
166
176
192
216
240
239
223
227
229
163
593
344
247
255
265
291
310
329
362
371
385
379
369
378
392
397
434
444
432
421
428
423
343
663
436
406
408
417
432
456
469
483
487
492
459
462
451
462
467
491
495
462
443
442
427
395
662
406
407
407
415
429
432
443
442
436
416
391
375
361
361
361
382
374
339
331
318
306
293
638
273
260
253
269
276
289
303
308
308
299
280
271
262
269
274
306
305
278
269
272
252
332
490
254
245
253
271
290
304
320
337
339
327
312
304
311
318
340
359
360
346
353
353
323
495
562
347
343
358
366
380
389
424
430
431
426
408
380
368
369
380
393
396
375
397
392
370
505
640
387
379
379
372
369
382
402
408
432
424
413
410
406
410
441
431
398
381
368
354
280
656
434
363
371
373
394
404
428
437
436
435
408
394
391
389
404
418
410
381
373
368
351
378
653
331
313
300
294
292
302
303
306
303
290
260
246
244
247
255
256
238
216
203
190
78
569
201
136
131
126
128
146
149
162
167
168
146
138
146
159
193
201
223
220
229
234
238
168
655
255
245
253
285
286
323
347
357
378
380
373
364
365
378
387
411
433
411
404
401
401
341
658
542
402
400
409
427
441
457
478
492
481
472
450
438
436
440
458
476
475
455
444
452
437
526
661
429
434
431
436
446
456
463
471
456
444
422
399
398
393
409
421
408
389
377
372
326
541
564
332
324
315
319
320
330
338
337
329
303
280
263
256
251
268
283
272
247
242
237
219
311
472
220
213
208
222
227
245
261
269
277
266
249
244
249
256
263
292
302
291
282
288
295
211
645
381
297
298
310
324
340
362
379
387
388
374
357
356
357
367
372
387
405
392
380
377
380
352
547
638
376
371
374
386
394
415
427
440
438
421
401
397
395
393
398
402
403
421
412
394
396
387
366
478
655
368
360
363
362
374
382
401
411
419
409
382
379
374
373
362
358
355
371
349
354
360
374
314
656
492
375
364
360
367
369
386
397
405
410
400
378
367
367
367
370
388
388
374
355
357
351
290
606
440
335
329
327
339
347
363
370
376
378
364
345
337
339
337
353
368
376
357
355
356
367
277
661
390
376
377
375
385
393
411
417
422
417
390
378
376
376
386
410
418
402
379
372
379
306
613
490
313
301
295
291
292
294
306
314
296
281
260
256
271
279
300
328
318
291
290
298
313
213
660
339
307
308
307
310
316
329
336
332
329
308
296
301
300
309
316
334
342
328
318
320
318
275
588
467
331
335
336
352
361
376
391
396
398
384
365
354
354
363
369
395
418
406
394
386
372
342
474
618
346
343
349
357
358
371
372
371
371
357
338
338
341
340
356
371
386
366
346
342
341
302
532
591
320
315
322
333
346
364
381
390
387
369
342
336
338
333
337
344
369
350
336
337
341
321
422
640
322
312
317
325
337
351
369
381
380
363
344
327
326
328
332
330
352
354
340
330
332
335
237
660
381
319
317
324
330
341
360
374
380
375
358
336
335
333
337
341
338
347
353
338
328
326
322
282
492
475
296
284
287
286
288
299
311
313
306
290
254
241
226
220
221
218
217
228
223
197
195
193
194
148
493
181
170
167
169
186
204
222
231
244
242
220
207
209
219
224
237
261
275
269
264
272
283
248
465
450
285
284
291
304
323
353
375
384
387
374
357
348
350
360
366
378
400
405
389
388
392
398
292
662
472
385
383
395
411
422
447
460
469
464
444
427
421
421
424
426
429
439
451
432
423
422
423
372
634
651
397
393
402
408
424
432
450
457
458
432
407
398
396
394
395
396
396
402
412
389
387
387
383
322
630
557
360
354
364
366
370
389
401
410
406
387
361
348
344
351
342
345
351
368
365
350
354
352
354
270
659
354
335
334
341
347
365
385
393
396
385
362
340
332
332
334
337
344
359
356
338
329
330
327
232
658
362
301
295
301
308
321
340
354
352
350
330
308
304
302
307
309
314
334
333
317
311
312
316
215
660
356
304
304
314
324
336
357
377
386
377
357
342
338
341
344
345
352
365
375
362
351
356
363
299
621
498
343
341
350
355
368
383
402
411
404
386
369
350
351
359
354
359
374
388
369
364
363
371
346
458
612
364
356
364
368
388
398
419
428
434
414
389
377
373
372
375
387
399
412
390
382
379
378
339
559
592
357
352
352
353
365
383
394
397
394
372
349
331
327
333
333
339
358
356
336
331
331
325
226
660
377
310
307
313
324
337
360
371
380
372
350
327
324
324
330
335
337
356
361
344
336
336
338
272
619
480
325
319
324
332
344
366
385
394
394
368
349
342
341
343
341
345
343
350
366
354
348
346
348
336
407
646
334
331
335
346
355
373
393
406
410
394
369
355
354
354
357
358
360
365
382
372
357
359
356
353
327
658
334
325
324
329
334
345
364
367
366
353
322
299
291
286
285
282
276
286
289
269
260
256
254
176
545
312
229
223
225
238
242
263
278
290
287
268
245
241
245
244
251
273
286
279
271
278
278
281
263
594
299
294
301
313
332
354
377
386
387
375
350
336
330
336
341
349
372
370
