293
289
282
287
289
295
299
321
318
301
297
297
297
200
661
341
283
281
282
289
306
320
339
351
353
332
308
295
296
301
301
306
305
309
315
331
322
316
317
315
314
285
659
307
294
293
301
311
322
337
354
366
359
333
308
299
302
302
301
307
303
304
302
302
314
308
303
305
305
222
653
362
282
278
277
285
295
310
327
339
346
329
298
280
278
284
284
291
290
294
303
306
308
318
315
310
310
309
266
532
459
295
294
302
309
312
338
353
368
379
364
345
321
317
310
310
321
315
322
321
325
333
329
331
336
331
242
659
336
316
313
319
326
349
359
374
375
380
357
325
313
310
309
313
320
317
326
328
339
327
331
333
328
312
657
320
315
310
319
327
336
352
365
368
365
344
325
325
321
321
327
326
331
332
338
332
322
325
325
305
446
603
311
307
306
310
317
329
345
359
362
352
324
307
298
305
308
309
310
313
320
325
323
316
313
316
315
235
661
309
288
289
293
302
310
328
346
357
353
330
304
293
295
297
296
296
299
299
298
301
304
293
296
292
290
185
661
310
268
267
268
278
288
300
318
328
331
313
283
268
272
274
275
280
281
283
286
289
300
298
289
294
296
279
386
551
287
282
282
296
303
316
336
350
363
361
332
303
301
299
307
309
310
312
310
314
328
322
317
319
319
232
660
359
308
307
312
313
326
341
353
366
368
354
330
321
316
322
326
323
334
339
343
339
336
332
332
334
309
658
330
310
315
314
324
336
346
356
361
361
339
319
311
316
316
319
320
326
339
329
318
312
312
315
224
661
312
297
295
302
309
322
333
347
352
351
337
314
311
312
311
315
317
326
348
331
316
311
315
314
207
662
331
297
297
304
310
321
338
354
358
359
342
317
311
311
315
318
320
324
333
342
333
319
320
316
317
259
661
315
304
306
309
319
331
346
360
367
367
345
318
313
314
314
313
318
318
318
322
337
328
318
318
319
317
261
660
314
303
301
307
313
324
337
351
358
361
341
319
311
315
316
318
320
312
315
324
333
319
314
311
316
306
353
624
307
299
300
307
319
328
342
358
360
358
336
315
306
308
311
311
311
313
310
326
332
317
314
316
313
293
430
545
302
295
301
306
315
330
344
358
364
360
337
311
309
308
314
318
314
315
318
332
334
319
315
319
316
225
658
348
289
291
293
310
310
325
342
358
360
347
319
310
307
311
314
315
319
336
343
323
314
313
313
306
355
612
312
307
310
308
324
336
350
357
362
357
338
319
314
318
318
321
326
344
348
327
317
316
316
297
425
573
305
295
298
305
313
329
347
358
365
357
331
315
310
314
310
314
322
342
332
312
308
309
311
206
662
332
292
291
296
301
316
333
346
362
361
345
321
309
308
311
313
317
337
345
323
314
311
313
308
358
613
304
298
296
306
316
328
344
358
364
360
332
313
310
309
311
311
313
319
343
329
315
310
315
315
211
661
328
297
295
299
310
319
335
353
358
361
347
321
314
313
315
314
315
312
324
328
322
312
316
315
319
273
658
314
300
299
301
311
324
338
357
369
365
346
315
308
306
308
306
308
317
332
325
307
307
306
307
217
660
335
292
289
294
297
308
321
341
351
352
341
309
295
295
296
299
296
301
323
318
301
299
299
299
221
612
348
280
280
282
289
298
314
326
341
347
336
313
297
296
292
294
291
301
321
319
301
301
301
301
209
652
332
285
282
290
304
312
327
345
353
357
345
319
311
306
310
313
317
334
342
325
317
321
322
304
405
549
316
309
311
318
333
339
359
375
376
372
348
322
320
320
326
330
351
358
333
325
331
322
297
491
493
316
305
311
314
323
340
347
361
354
352
325
305
302
301
302
311
333
325
302
292
295
297
201
657
327
272
269
276
281
292
309
323
333
334
318
294
282
287
288
290
304
325
315
298
295
298
298
192
661
308
278
282
286
297
309
327
340
349
353
334
310
303
304
306
308
313
334
337
312
310
310
310
255
572
431
305
292
295
304
317
328
344
354
359
352
324
309
306
308
309
313
316
335
338
319
312
314
315
252
593
423
301
295
300
307
316
326
342
354
359
348
322
309
307
310
309
308
312
330
333
310
304
302
303
239
588
403
285
278
284
296
309
321
338
350
360
347
317
292
286
292
296
298
317
331
309
310
310
307
303
382
530
305
301
303
309
320
334
344
354
358
353
339
323
319
322
323
327
330
346
329
312
305
307
305
198
662
289
246
291
286
289
299
322
336
354
353
337
326
329
321
325
323
312
336
327
305
293
256
229
201
661
333
334
353
348
348
347
367
377
391
378
361
330
325
341
338
335
349
342
372
355
341
335
341
333
265
628
312
287
285
287
290
303
314
317
331
333
325
307
306
307
302
302
315
333
285
273
290
288
236
554
356
291
298
286
296
302
311
308
302
301
292
287
280
288
291
292
301
321
293
266
248
263
242
301
552
253
246
268
274
274
252
329
340
346
313
316
281
319
278
330
309
333
331
330
322
325
311
191
663
344
265
257
263
282
301
320
337
363
383
358
294
272
339
316
309
342
379
348
336
369
321
337
253
663
320
308
303
297
306
314
333
350
372
383
378
364
358
361
359
355
377
359
329
313
304
272
179
660
303
209
325
261
305
289
333
378
351
335
330
308
296
292
288
274
290
278
246
241
242
240
141
657
254
253
247
259
256
258
261
254
269
257
206
263
238
272
308
311
321
298
285
282
277
270
276
559
258
243
249
256
275
298
325
342
355
363
350
334
333
332
327
339
342
309
298
293
288
209
612
334
299
312
323
335
349
360
368
369
373
369
348
341
343
344
359
359
337
337
336
336
256
658
374
327
331
331
342
348
359
368
370
369
361
342
333
328
336
354
352
329
317
320
321
237
647
335
308
304
312
321
329
347
356
355
355
349
327
319
318
333
344
329
308
300
294
278
354
518
290
284
288
300
311
326
332
326
335
332
313
306
309
321
343
346
326
313
314
319
224
660
350
301
295
305
312
326
336
349
347
347
333
315
311
312
322
347
347
320
317
311
313
292
657
303
290
296
298
309
322
335
344
351
345
330
311
318
324
337
351
333
317
313
309
234
633
375
299
291
301
310
327
339
348
352
357
341
321
315
318
321
329
345
331
321
313
312
242
610
382
297
297
305
308
323
339
363
378
366
319
323
313
313
362
329
334
349
318
307
299
287
496
430
300
316
295
316
339
322
338
338
368
329
313
301
304
305
320
326
334
315
314
302
224
628
353
310
297
289
316
340
352
343
344
348
344
316
312
309
311
316
336
330
315
316
318
294
400
494
298
299
298
306
313
328
343
346
357
347
323
308
306
316
317
322
346
326
317
316
315
235
606
360
302
298
307
313
323
336
350
353
349
339
316
317
313
317
321
337
337
319
315
314
294
426
485
306
295
301
307
319
329
350
351
350
346
325
315
321
325
330
340
349
327
311
311
307
281
588
309
297
302
315
318
327
345
353
352
347
321
311
314
311
327
340
356
333
322
324
324
242
656
328
301
306
311
310
328
334
350
351
348
319
312
306
303
324
327
354
344
324
317
313
244
611
427
292
285
295
296
311
314
328
334
336
320
303
301
300
311
311
333
352
326
320
305
313
200
663
300
280
283
289
290
310
325
337
341
342
319
302
306
305
320
301
325
343
320
314
312
308
192
661
327
291
295
300
303
322
336
346
359
351
336
314
308
316
311
312
312
329
341
317
317
314
315
231
661
317
297
293
297
306
319
339
353
358
354
334
304
304
307
314
312
313
317
320
342
341
324
323
320
294
456
554
304
293
299
305
320
330
345
363
363
357
330
310
308
307
311
311
314
316
317
320
343
327
318
319
322
221
660
370
303
300
304
314
321
339
353
364
367
351
319
309
308
310
309
314
319
314
323
342
330
318
317
320
276
513
470
302
299
299
310
315
332
347
357
362
351
325
309
305
307
308
310
311
312
315
335
335
316
313
314
307
323
618
310
297
299
305
315
329
344
357
368
358
337
314
313
306
309
312
315
315
311
319
332
334
318
318
318
311
343
608
311
297
298
304
313
329
344
361
366
362
336
319
311
315
311
320
318
322
317
322
342
321
314
301
313
216
653
330
287
290
296
305
310
335
345
350
358
337
320
303
308
311
312
314
314
320
327
343
317
311
306
313
210
661
308
294
289
302
311
323
343
354
363
366
347
327
323
328
327
325
329
336
350
352
330
323
324
323
212
662
328
298
297
298
304
317
333
350
359
356
334
308
303
303
307
309
309
311
322
339
321
312
307
309
245
578
436
290
283
286
296
305
322
344
352
356
346
319
299
304
303
305
307
313
313
311
314
325
339
317
315
315
312
211
661
328
298
297
295
306
320
335
354
362
366
349
321
308
310
311
313
312
312
314
312
312
314
337
324
317
315
317
257
575
440
301
294
295
307
314
330
348
359
366
352
325
308
303
308
310
310
312
310
313
313
327
338
316
314
314
315
209
660
331
293
292
293
303
311
328
345
358
360
340
313
307
308
306
308
311
311
313
309
315
336
324
318
313
315
295
417
547
302
297
300
306
316
330
349
362
373
369
347
324
319
319
311
321
325
325
311
322
339
328
312
314
317
265
550
424
310
302
308
312
327
335
347
365
362
357
333
317
316
318
312
315
318
311
321
339
317
300
304
303
241
604
440
300
288
295
298
309
329
345
358
364
353
321
315
309
309
317
315
312
320
344
330
315
321
321
289
507
570
305
298
300
304
315
333
347
365
370
359
331
312
315
311
314
316
324
338
359
336
328
324
325
270
558
506
303
300
299
308
319
331
349
360
363
349
319
301
299
299
300
303
305
320
333
315
301
302
303
254
545
448
291
287
288
296
308
324
343
358
357
349
316
300
297
300
301
302
305
304
312
333
318
308
308
311
283
463
527
300
293
291
301
309
326
344
362
364
358
334
309
307
310
309
310
306
311
319
337
320
312
313
316
266
551
445
301
293
298
304
317
326
347
359
364
352
325
308
305
302
302
302
304
306
316
338
324
317
319
315
278
501
489
301
291
298
304
319
332
356
368
376
365
345
307
313
310
313
315
310
317
343
334
316
318
325
322
314
641
322
305
315
321
323
340
350
353
365
363
333
320
308
307
306
309
309
321
350
326
314
299
295
294
317
609
286
283
290
296
307
325
338
346
345
336
323
328
342
353
353
349
346
348
353
320
305
299
302
268
510
540
290
294
293
299
308
308
330
334
345
337
316
308
310
306
321
326
340
348
352
335
317
327
279
246
615
553
273
284
294
318
318
342
324
340
336
351
318
304
305
297
304
321
293
256
311
333
333
313
333
354
337
203
662
320
301
290
294
292
297
328
334
331
361
348
313
308
291
267
324
303
306
312
377
340
323
320
326
335
270
661
302
284
269
266
293
290
326
337
341
332
336
295
308
318
323
338
345
329
341
327
337
328
337
296
456
494
291
284
301
315
335
351
363
376
380
381
362
339
334
325
322
311
324
330
317
299
301
296
269
425
418
283
276
279
282
290
300
307
314
317
311
293
272
267
266
267
273
292
292
274
271
270
272
193
575
302
265
263
272
281
290
305
318
326
334
326
307
299
298
299
304
321
324
306
299
298
303
262
517
397
297
292
297
307
318
335
348
358
368
365
342
333
327
327
331
347
353
327
323
326
321
266
577
394
315
312
315
325
335
344
357
366
372
352
338
316
314
323
340
355
333
323
319
324
308
384
533
307
302
300
319
329
340
350
360
354
354
332
316
308
316
339
348
331
313
312
310
294
399
546
304
296
292
304
312
322
333
342
344
336
313
303
299
303
314
335
315
301
296
296
285
373
559
287
278
280
286
295
309
323
332
340
332
309
297
297
302
305
326
333
308
299
301
301
210
659
339
290
286
293
301
314
329
344
353
351
340
311
309
304
313
308
315
318
334
329
317
317
318
290
463
499
306
298
299
310
318
335
347
358
365
357
332
312
307
312
312
317
332
338
323
318
318
319
234
658
359
302
297
304
311
323
336
349
358
361
341
317
307
305
305
307
313
332
320
306
299
299
287
334
551
286
273
274
277
290
300
312
326
330
323
297
277
278
279
283
283
289
302
310
291
285
285
287
202
651
296
274
275
280
291
305
321
338
347
344
322
302
296
299
302
306
308
306
316
335
319
308
308
310
233
640
358
302
298
303
310
320
333
351
362
365
351
325
313
314
315
317
322
322
325
343
346
329
328
328
323
310
635
321
314
318
325
333
338
358
370
376
374
347
325
325
320
324
319
328
327
327
342
340
320
319
308
301
377
525
305
298
304
312
327
337
349
357
362
356
339
322
314
315
318
322
327
325
353
353
328
328
321
321
247
660
306
289
288
300
305
319
334
342
354
346
331
317
317
317
323
328
328
341
353
333
315
313
314
255
576
450
299
294
298
304
317
330
348
355
359
338
316
306
307
313
312
315
320
330
350
326
316
313
315
245
624
426
302
291
297
304
311
328
347
355
356
344
316
304
305
307
309
305
311
310
313
328
336
312
307
306
309
233
660
307
293
292
295
301
320
329
347
354
353
331
306
301
302
306
313
312
316
314
313
318
339
336
316
315
317
303
369
605
301
294
292
299
308
321
339
353
359
355
327
306
300
300
303
307
308
307
306
304
311
338
327
315
312
314
286
455
515
303
295
297
305
313
328
346
358
364
355
333
310
304
306
307
309
311
312
312
312
329
337
319
313
313
314
217
660
331
300
295
304
312
322
337
355
363
364
346
320
309
308
308
312
314
317
317
314
319
338
339
322
319
320
317
312
641
314
302
303
309
320
329
347
363
370
367
345
318
314
312
311
312
318
315
314
320
334
344
325
320
319
317
221
660
333
298
297
304
312
322
336
353
361
364
346
320
306
304
305
307
306
309
309
311
330
333
316
312
312
311
217
659
318
293
292
299
309
319
332
351
360
360
340
314
303
302
304
306
308
313
313
317
329
341
322
313
315
316
237
633
372
304
300
304
311
322
337
357
368
370
358
330
313
315
313
317
321
322
324
324
338
350
330
326
323
325
261
588
410
310
308
310
318
326
340
360
374
375
365
339
319
315
314
318
320
320
321
321
324
342
344
324
319
318
317
237
658
317
297
296
302
310
321
335
349
360
363
341
314
301
301
301
304
306
310
308
316
328
333
315
313
315
316
228
659
339
304
297
301
309
315
332
343
356
361
342
313
303
292
307
301
306
306
311
324
335
319
309
303
310
265
525
422
304
300
308
315
325
336
353
364
362
355
324
316
314
314
318
321
321
331
350
351
325
321
319
322
216
661
331
297
298
304
316
321
336
354
361
363
343
320
311
307
311
309
319
324
345
344
322
314
316
316
233
647
393
300
294
297
305
313
325
348
361
360
348
320
306
305
306
306
311
308
317
337
327
313
319
313
310
245
659
309
297
299
298
305
322
331
347
359
356
340
316
315
314
317
316
318
319
322
342
341
321
319
318
319
219
661
336
303
304
304
311
324
338
353
366
368
350
323
311
313
317
315
316
318
319
343
337
317
317
318
318
218
661
330
293
294
299
305
315
330
347
358
360
340
310
298
295
296
296
299
304
300
307
328
315
303
300
302
293
310
606
290
276
285
289
298
311
330
340
348
351
328
309
304
306
309
314
317
318
328
345
323
315
317
316
304
373
585
307
304
308
316
320
338
349
366
370
366
339
316
309
309
313
319
312
313
344
330
315
310
316
309
217
658
320
292
292
297
304
315
331
347
354
351
337
316
301
301
308
309
306
306
318
336
320
310
305
314
307
375
612
301
294
297
298
306
317
338
354
365
362
343
324
320
320
321
316
318
335
343
323
313
312
320
303
354
576
304
295
293
296
309
317
333
351
351
347
320
299
295
295
297
298
297
305
331
323
311
309
306
310
222
656
319
298
294
303
310
314
332
345
352
353
339
313
299
295
295
295
293
298
320
329
307
294
295
295
265
445
438
287
279
283
293
303
317
328
341
343
338
313
300
297
299
304
303
306
316
329
309
298
299
301
303
318
648
297
293
299
299
312
320
338
352
358
356
334
315
310
314
319
316
319
318
340
336
319
313
313
316
226
660
353
298
295
301
306
322
335
351
363
364
354
331
313
315
317
320
319
318
321
338
350
327
320
319
317
253
591
410
304
302
304
317
322
343
352
362
364
358
326
309
307
304
303
307
305
304
316
328
309
299
301
305
265
468
434
287
276
282
286
292
305
317
328
333
323
301
280
274
279
277
280
282
295
311
296
283
282
283
284
230
646
285
273
269
277
287
297
313
326
337
336
318
294
293
294
294
299
296
306
323
327
306
306
305
310
232
634
379
295
294
298
303
317
330
350
361
367
357
329
317
318
317
319
319
321
331
350
335
319
320
320
320
245
661
314
299
301
301
309
323
334
349
361
358
341
316
310
312
308
310
311
310
308
327
333
314
310
308
314
236
633
380
301
298
301
311
318
332
346
361
361
352
327
316
315
313
315
314
318
316
334
338
320
314
317
315
249
609
406
307
299
301
308
319
332
349
356
361
352
324
312
311
312
311
313
314
314
322
343
325
316
318
317
307
369
604
302
300
303
311
323
333
346
360
364
364
342
323
323
320
322
321
322
325
347
351
327
324
324
326
274
567
435
313
310
312
318
329
341
346
350
362
360
334
316
309
313
312
309
312
327
339
320
313
313
312
289
437
475
302
296
297
307
317
333
345
351
358
349
331
312
305
306
305
307
315
341
339
319
310
308
299
215
635
352
289
292
301
310
322
333
347
350
348
338
319
313
315
318
324
332
345
354
331
322
315
313
307
315
656
302
296
291
296
304
322
333
348
352
350
331
310
307
307
308
308
311
333
322
302
297
300
304
204
661
319
288
280
286
293
304
323
344
357
362
352
327
320
322
323
321
325
329
346
326
315
312
316
312
315
659
302
294
292
298
305
314
330
345
353
352
332
316
317
315
312
311
317
330
338
313
303
305
307
273
496
473
293
286
295
302
321
330
349
354
362
353
326
309
311
314
311
309
323
330
314
305
312
309
308
317
567
303
296
296
305
310
326
338
353
356
352
328
305
303
299
307
308
332
330
312
306
302
304
279
420
490
297
293
288
289
295
304
311
320
324
318
296
285
289
291
300
310
324
335
314
300
297
302
285
400
528
285
279
281
286
306
322
343
356
365
360
335
316
315
312
317
319
344
343
320
315
318
320
252
607
397
307
301
306
313
327
339
359
367
367
356
327
317
319
320
324
321
336
340
331
326
326
323
321
302
646
312
304
301
305
317
329
347
360
367
365
337
316
310
305
306
308
316
328
329
316
315
316
315
243
635
363
308
300
302
311
321
336
350
355
356
341
317
306
301
309
311
312
321
325
323
316
314
312
313
313
618
308
294
292
297
308
323
337
350
353
348
326
310
305
303
308
310
308
317
315
324
312
314
316
320
232
660
322
298
294
303
310
320
335
351
360
358
332
308
302
300
300
304
307
308
314
316
318
311
307
307
307
203
662
310
296
292
303
307
323
336
351
360
360
339
311
306
307
309
308
305
305
308
313
324
318
319
320
324
298
442
530
297
289
287
293
306
320
338
354
360
354
332
306
300
305
303
305
309
312
317
323
312
310
308
312
238
624
373
297
296
297
305
316
329
346
356
359
344
319
304
308
305
310
313
313
313
317
326
319
316
316
316
314
262
651
316
304
302
309
322
329
348
360
366
367
343
319
307
305
307
308
314
314
320
328
319
313
313
316
315
316
609
316
301
306
309
321
332
345
355
362
359
339
316
305
307
312
314
314
320
333
332
315
314
308
311
257
564
397
305
294
296
301
309
315
329
331
325
323
298
280
281
284
290
295
303
316
322
305
304
310
308
287
464
489
301
291
296
296
311
330
331
345
347
348
323
317
315
307
313
315
328
350
345
331
333
336
336
217
662
302
291
285
287
296
306
317
337
351
349
331
320
328
317
339
325
336
324
276
332
329
325
328
272
656
592
312
293
300
293
305
320
325
334
325
324
298
286
253
346
340
341
330
362
407
387
351
352
349
318
234
663
300
280
285
300
295
312
314
348
344
326
320
295
282
280
271
270
273
300
301
287
285
277
279
214
622
291
263
266
259
267
275
283
293
297
310
312
306
292
296
299
304
309
312
299
284
282
278
284
253
602
267
266
263
282
290
306
308
338
346
364
356
358
343
351
345
361
344
377
367
322
227
339
323
175
663
320
319
327
320
308
336
322
353
353
353
346
326
314
317
316
318
323
334
342
311
306
300
303
241
622
398
289
281
282
287
297
315
331
339
344
339
328
322
318
317
319
326
344
333
316
312
314
322
215
663
319
313
307
311
317
329
338
349
351
356
347
330
325
330
326
331
352
346
320
315
317
309
217
659
347
296
292
294
299
311
318
326
329
333
323
310
299
305
305
310
335
331
305
297
303
300
208
659
318
287
286
289
298
306
321
328
332
334
325
303
296
308
307
314
332
322
301
298
295
294
257
649
301
289
287
296
302
318
334
343
348
345
325
312
303
310
312
340
344
319
312
309
315
249
603
407
301
292
299
305
316
330
340
349
349
339
316
307
309
312
321
348
329
307
304
306
303
294
640
304
293
298
306
319
328
345
353
356
351
330
310
312
314
319
336
347
324
309
310
307
251
580
399
292
286
289
294
306
320
333
346
343
331
307
298
295
299
300
315
328
305
296
295
294
220
612
360
284
281
282
289
305
320
337
343
348
335
309
301
302
304
305
316
334
320
307
306
307
265
522
438
298
292
297
302
312
326
341
349
356
346
321
309
311
315
312
318
337
335
314
312
314
308
294
636
308
300
297
309
316
327
345
355
358
356
330
321
306
313
309
313
327
338
318
307
304
308
210
658
330
291
285
290
294
308
326
341
346
344
324
299
288
289
288
291
311
311
288
283
284
284
213
636
288
264
268
270
278
294
309
322
329
326
301
280
282
279
280
284
295
312
295
287
287
287
220
581
352
272
273
279
286
299
319
330
341
350
336
311
301
303
306
308
308
319
338
336
318
314
314
286
449
484
308
304
301
307
317
336
347
355
362
358
330
317
314
316
317
319
330
358
346
323
320
320
313
344
604
310
295
298
300
311
324
340
353
360
353
331
316
316
314
316
318
327
349
332
315
310
311
294
422
569
302
294
293
303
315
327
340
357
359
351
326
311
311
309
308
310
315
337
328
309
307
311
304
321
606
309
299
302
308
316
328
342
354
361
357
341
321
320
326
329
330
330
334
350
334
320
321
324
282
512
443
305
303
305
311
320
331
351
356
362
351
326
310
308
308
308
307
318
332
333
314
307
300
301
243
615
300
292
292
293
301
313
333
336
335
331
309
293
282
283
282
282
294
314
306
288
283
283
278
268
593
277
256
259
262
275
286
302
313
320
311
294
278
272
277
275
281
298
318
306
290
284
291
244
485
440
280
274
278
286
297
313
330
342
348
338
316
303
310
304
309
320
343
343
323
312
314
317
218
662
357
304
308
306
314
329
345
367
373
376
357
333
323
325
322
328
334
359
354
330
326
327
326
238
661
320
309
303
310
316
330
346
367
362
364
340
320
315
318
318
317
320
337
350
324
313
309
310
229
651
386
291
282
287
295
308
324
339
351
352
338
310
301
301
304
305
307
316
338
330
310
306
307
303
227
663
287
277
276
284
290
301
316
331
338
334
311
292
289
287
287
288
287
290
305
313
288
280
280
281
162
661
293
263
261
268
277
289
305
321
330
333
321
299
295
294
297
301
301
304
315
333
308
304
303
306
229
641
396
303
291
303
310
323
341
359
368
372
360
330
319
318
324
327
326
332
357
341
335
334
328
320
330
596
320
302
310
316
325
331
352
358
362
355
339
316
310
314
316
319
325
341
343
316
316
314
317
240
657
318
303
300
309
313
327
337
352
354
352
339
318
315
311
316
316
321
345
343
317
315
313
312
215
661
329
298
295
302
308
323
340
350
355
359
334
318
311
309
311
313
319
340
339
315
309
308
307
203
660
324
293
286
294
299
310
327
340
347
346
324
303
292
292
294
294
296
305
323
308
296
294
296
280
367
560
278
270
270
279
284
299
315
328
335
327
302
286
282
282
284
284
287
284
293
318
302
291
295
294
263
444
493
282
277
275
289
296
311
331
346
351
340
318
297
298
299
302
304
309
309
311
312
337
336
317
319
319
318
298
657
314
304
302
310
319
334
350
366
373
372
349
324
317
322
320
321
321
327
324
325
345
355
331
327
326
326
231
661
360
313
307
313
320
332
344
360
369
373
356
325
315
315
313
315
318
318
319
317
328
350
328
319
318
319
290
470
518
303
292
293
299
307
320
338
346
350
342
314
293
290
287
286
284
285
283
279
285
306
292
281
272
275
263
300
559
263
247
249
255
263
277
289
308
314
308
283
264
262
261
262
266
270
271
275
281
304
296
284
288
287
288
232
651
297
279
283
290
299
315
331
349
361
358
340
316
308
309
312
316
320
321
325
328
352
352
334
332
332
331
237
661
341
319
318
322
333
345
356
378
382
384
365
339
331
329
327
330
330
332
329
334
356
350
336
332
337
334
239
660
341
318
311
315
322
328
341
360
368
367
352
322
309
308
306
307
309
311
323
342
330
317
314
313
306
277
636
312
292
295
302
306
317
334
348
354
351
336
317
299
301
306
309
312
327
351
327
315
313
313
302
355
614
307
295
300
296
308
316
338
342
352
342
324
310
306
309
311
313
323
344
349
323
318
317
316
262
589
445
303
296
298
308
319
332
348
360
357
345
320
308
310
311
313
318
329
350
342
319
316
317
318
215
661
328
299
295
298
309
320
334
348
358
355
331
308
303
300
303
304
307
304
320
332
312
296
300
298
269
448
508
281
275
276
283
290
306
324
336
347
333
307
292
289
289
294
292
298
299
302
318
325
303
300
299
299
206
659
344
284
281
282
293
302
319
331
345
343
331
301
285
287
285
288
290
290
289
292
306
317
297
292
291
292
217
604
377
278
274
274
287
296
310
328
342
347
334
305
293
292
297
300
302
307
308
308
313
337
334
318
316
320
320
230
661
331
308
306
313
322
334
351
368
379
381
360
333
321
320
327
326
326
329
332
334
354
351
328
327
334
335
244
660
339
323
310
327
318
331
344
365
369
369
348
320
304
307
299
305
312
310
316
339
339
313
312
315
311
226
659
308
291
294
294
312
319
332
344
347
348
334
312
307
310
312
320
330
341
365
359
330
321
314
309
211
661
357
278
270
279
289
300
312
324
342
348
330
311
305
304
310
309
310
313
336
327
306
305
304
300
186
662
347
292
274
290
277
302
219
310
336
355
347
324
320
320
317
321
324
329
347
359
336
335
329
337
308
471
657
303
248
251
329
310
314
376
367
362
352
336
332
318
328
324
334
336
342
347
377
363
348
348
346
334
358
640
316
307
306
311
319
328
344
346
350
349
335
295
279
282
268
273
285
297
260
267
265
268
253
326
489
266
251
263
255
266
279
295
296
306
307
292
280
278
276
277
285
297
306
287
275
277
287
236
460
400
280
267
273
279
278
291
287
304
318
315
308
304
315
322
319
331
354
356
325
316
315
321
244
661
472
291
304
309
306
322
320
336
348
362
338
300
247
354
337
317
350
364
381
353
378
351
343
243
663
333
312
307
309
317
342
352
373
385
378
364
342
334
326
331
329
345
354
329
325
325
330
261
631
510
312
303
307
309
318
326
336
341
346
341
322
310
310
314
316
334
334
309
304
303
305
203
661
355
286
272
276
275
280
289
299
301
302
293
274
266
269
267
266
284
274
239
227
228
226
110
649
233
210
210
213
216
223
238
248
256
256
252
242
237
245
250
271
291
271
261
263
268
247
391
481
279
273
281
282
299
317
327
339
344
343
328
318
319
322
332
355
346
327
323
329
332
250
661
346
324
322
327
344
352
374
378
383
389
368
346
341
338
348
370
365
346
334
340
340
253
660
375
327
320
322
331
347
357
369
377
380
361
339
329
326
331
349
353
333
323
321
317
255
591
408
306
299
301
307
309
329
337
345
346
330
308
296
295
291
302
318
307
291
288
285
279
312
580
283
267
272
278
287
301
317
332
335
326
302
288
284
289
286
311
312
303
294
293
294
238
559
394
282
280
281
289
303
316
334
346
349
338
312
303
304
301
308
325
331
313
308
311
314
217
660
346
297
298
300
306
324
340
355
365
370
348
322
319
317
319
317
341
340
323
322
325
328
239
661
332
309
310
312
319
336
351
360
368
368
345
318
313
314
309
317
335
329
308
311
309
306
317
620
304
293
292
298
306
320
339
352
355
349
324
307
305
303
304
319
334
319
307
302
307
275
481
457
295
285
287
296
304
322
337
352
354
335
313
296
297
293
302
300
325
320
304
296
295
295
204
656
303
278
280
286
293
309
319
335
340
332
318
300
292
291
296
304
311
340
332
312
308
308
305
308
631
298
286
286
293
301
315
332
342
349
341
313
301
296
298
301
304
309
329
334
310
302
302
307
203
661
331
299
293
293
298
306
319
335
349
354
337
317
314
314
315
313
313
316
321
348
343
322
320
320
318
268
662
301
302
302
308
319
330
344
362
370
368
342
322
321
321
319
315
313
313
317
336
332
310
304
300
290
275
650
259
248
246
232
252
276
286
285
272
301
262
233
229
244
237
252
256
260
278
288
262
256
265
273
154
663
285
278
282
282
286
295
312
330
338
341
324
306
306
306
310
314
315
321
321
349
340
323
328
333
292
528
512
319
308
311
320
328
345
352
366
366
359
330
310
306
309
308
309
318
339
325
308
303
301
286
350
532
291
281
284
289
304
313
326
336
342
335
312
301
299
304
309
312
319
334
344
321
317
320
318
214
661
351
306
307
308
319
332
353
364
376
381
364
337
325
327
325
323
332
350
346
327
327
326
326
265
630
341
311
315
321
336
340
357
372
374
374
352
334
322
325
324
332
355
355
335
325
324
327
259
618
392
317
314
320
327
336
351
360
368
369
356
331
316
318
319
314
332
351
342
318
315
313
308
223
658
313
293
292
296
305
316
334
346
353
351
329
306
303
299
300
308
317
342
329
306
307
303
301
230
659
302
286
290
289
304
313
334
345
352
347
325
301
299
297
302
305
310
329
342
319
306
309
306
262
521
468
293
288
294
299
312
326
346
354
358
345
315
304
299
301
305
305
303
312
331
326
302
301
294
298
191
660
303
274
271
275
280
289
309
320
326
323
299
270
261
260
259
263
262
263
261
269
292
268
258
261
259
232
406
465
249
241
245
252
265
282
301
316
321
314
287
272
272
278
283
287
291
292
297
299
300
305
308
326
342
318
314
318
319
215
662
351
309
307
312
322
332
349
365
379
385
369
342
330
325
331
334
332
333
343
341
338
350
374
349
344
344
346
306
552
557
332
330
324
331
341
351
370
380
380
372
342
321
317
314
319
313
318
319
321
321
329
347
325
319
316
316
249
615
383
304
299
302
315
319
338
350
360
364
355
330
317
316
316
319
320
321
315
323
339
342
321
318
315
315
218
660
330
293
286
282
282
285
294
309
316
317
301
288
292
301
312
320
326
330
329
326
337
340
310
298
296
296
233
634
515
297
296
299
307
318
333
351
364
379
356
340
340
320
334
330
328
324
323
330
341
317
301
294
290
260
449
470
282
280
283
293
299
310
324
331
332
318
283
260
253
247
243
242
240
237
244
267
247
231
231
230
220
258
535
221
213
218
227
237
251
266
282
289
287
262
244
249
255
259
264
273
286
314
304
291
289
297
298
233
660
300
296
297
306
317
340
362
374
391
393
369
344
345
349
349
351
352
371
383
355
341
348
350
316
506
516
336
330
330
339
348
364
375
388
391
382
366
343
342
341
345
349
362
383
365
350
343
344
345
270
661
336
324
322
325
337
348
365
375
383
372
359
331
321
323
323
325
330
350
352
331
320
318
319
279
497
506
306
295
301
301
310
324
340
352
355
343
317
299
297
298
301
300
298
309
330
314
290
294
295
294
245
655
287
269
267
274
283
300
316
333
339
343
316
290
282
278
282
280
292
294
323
309
292
295
296
293
202
660
299
287
282
293
299
314
331
347
352
347
330
311
309
309
311
317
321
329
356
348
329
324
326
326
216
662
363
307
302
306
314
324
347
361
375
374
351
325
314
314
314
314
314
317
323
347
341
322
322
319
320
202
662
349
300
298
297
307
320
341
353
371
369
346
316
307
310
308
312
313
311
310
322
335
320
318
315
322
309
370
642
306
294
300
301
312
327
346
365
370
365
331
314
305
304
311
312
316
315
310
315
327
342
319
319
312
313
275
515
506
298
294
297
306
317
328
347
359
364
358
330
304
297
300
304
308
308
309
314
325
329
311
312
313
316
230
660
368
308
303
303
311
321
330
348
358
358
342
319
308
306
306
305
307
314
310
318
339
323
310
308
312
312
219
660
310
291
290
297
302
318
334
352
361
362
337
311
302
303
306
308
312
312
313
316
327
343
322
314
312
313
274
509
513
300
293
296
301
312
327
345
358
362
352
324
306
304
308
309
311
314
314
316
322
343
326
314
313
314
315
230
661
309
308
304
303
310
332
348
360
366
372
340
316
306
305
311
304
300
309
308
319
329
308
299
299
299
264
469
448
292
277
286
292
305
312
324
331
338
326
304
287
284
281
288
291
290
303
323
301
290
284
290
290
206
659
288
277
280
272
287
297
308
314
321
322
312
301
302
300
313
332
347
351
360
327
304
302
290
285
201
662
263
274
277
290
301
260
251
370
353
359
362
353
333
369
347
362
362
378
376
355
316
329
325
298
285
661
263
251
328
278
343
355
367
380
405
366
369
344
366
348
351
338
347
333
353
371
365
354
343
337
332
240
661
302
285
278
287
295
289
308
321
315
321
309
284
282
282
278
283
293
323
309
289
280
277
268
189
640
262
252
245
246
260
261
267
278
278
281
270
254
260
254
249
257
264
282
267
240
244
233
242
133
653
209
215
191
208
234
255
243
251
215
239
297
263
261
294
293
328
336
374
379
315
321
314
323
186
663
370
305
304
312
317
328
345
348
367
373
351
345
310
319
288
291
370
387
359
420
374
403
374
275
663
534
342
336
340
343
351
371
381
389
383
399
383
371
363
354
352
355
372
361
342
343
342
341
258
660
348
327
320
328
339
341
350
352
355
355
344
323
305
304
295
301
322
314
289
286
281
284
188
644
313
264
264
268
279
287
303
312
320
318
311
291
278
278
279
290
307
298
282
277
284
283
212
648
300
279
280
287
293
305
319
335
338
341
327
310
305
307
310
330
336
314
302
301
303
261
498
456
294
286
290
297
312
323
340
344
350
342
322
307
309
310
334
341
324
313
313
309
301
370
592
303
297
299
309
320
338
355
362
369
361
343
323
323
327
348
355
335
325
323
326
295
478
500
313
301
306
313
326
336
354
358
363
355
333
320
317
322
343
345
324
312
310
312
223
659
344
296
294
298
307
318
332
343
352
354
339
316
306
306
321
341
331
312
306
303
300
313
615
294
281
284
290
299
314
329
343
344
338
313
295
295
295
308
326
307
290
292
290
238
523
384
272
265
271
277
288
302
320
328
332
319
296
286
287
290
304
318
305
291
289
293
242
530
391
280
278
278
293
300
320
327
343
351
336
307
296
293
296
310
328
319
298
299
297
269
475
445
300
293
294
306
316
333
341
356
352
345
327
316
316
317
336
349
336
314
312
312
231
643
360
295
292
298
309
321
341
350
359
358
340
326
321
322
325
336
362
344
328
325
325
244
653
413
307
299
305
309
326
338
352
362
364
345
326
315
319
317
322
344
345
324
317
317
307
296
657
302
291
289
300
308
323
340
352
354
348
322
305
306
303
308
309
307
322
337
314
305
305
307
222
661
307
283
279
282
292
303
316
335
342
334
309
287
274
275
273
274
271
276
293
279
262
261
261
171
615
304
241
236
239
247
258
276
291
303
308
287
265
258
263
263
270
273
287
305
292
284
287
289
193
658
326
285
286
296
305
323
339
355
369
370
348
324
321
322
326
328
330
329
336
357
348
333
335
334
255
658
398
321
314
320
327
340
355
373
383
385
367
340
325
326
328
331
333
335
336
347
359
338
333
334
333
278
659
336
320
319
322
331
345
358
375
378
376
348
327
318
320
322
325
326
326
325
341
348
327
323
323
316
333
620
312
297
298
308
320
330
347
361
368
361
335
311
309
306
308
309
314
312
314
330
335
318
315
318
311
322
617
308
297
300
308
317
329
345
361
364
360
336
313
309
306
310
311
311
313
313
330
333
316
314
312
301
375
546
302
288
292
295
305
314
330
343
347
338
313
290
289
288
287
287
285
282
290
309
296
286
286
284
220
547
359
271
265
270
275
287
303
320
334
334
325
297
287
290
286
297
289
296
295
307
321
312
292
301
296
219
633
337
295
289
298
306
320
339
351
363
368
353
324
305
314
314
321
317
322
328
356
339
325
328
330
277
579
443
325
315
318
321
334
346
363
361
371
358
334
322
313
319
318
315
323
345
336
315
314
308
311
222
661
298
288
277
284
289
294
309
316
322
316
295
283
278
281
277
281
286
298
308
288
270
267
265
173
642
301
247
242
252
258
265
279
298
305
304
289
270
266
266
274
276
285
298
325
309
297
297
295
262
487
493
289
286
290
299
312
328
344
358
363
352
331
323
320
326
333
335
344
372
363
345
343
340
341
279
662
333
325
325
329
337
347
368
380
386
384
357
344
337
340
338
348
343
353
372
360
343
339
341
334
367
656
327
321
318
327
332
346
363
371
373
369
339
322
317
322
321
324
326
326
329
351
340
323
323
324
307
388
619
312
301
298
307
315
326
345
359
364
358
330
310
310
310
310
312
312
318
318
339
321
314
309
318
272
503
500
304
299
296
301
309
326
343
355
363
347
319
303
310
308
315
315
318
316
319
333
343
322
315
319
318
216
662
337
301
299
305
313
323
339
355
360
360
333
306
298
299
298
296
296
299
299
304
323
306
297
294
296
246
508
426
279
274
273
279
290
304
321
333
338
325
298
284
282
285
284
287
291
292
292
319
312
299
299
303
302
253
655
300
287
289
292
304
320
334
355
362
358
336
315
310
312
312
315
319
316
318
322
344
330
324
324
327
293
483
512
312
307
309
316
323
338
356
371
380
370
345
328
326
324
324
326
328
328
332
345
355
337
336
334
331
233
661
356
314
311
316
316
330
343
361
367
364
351
317
302
301
302
310
305
307
323
336
317
305
310
308
272
491
436
298
293
294
302
313
321
337
353
349
337
315
303
301
303
301
305
306
320
335
308
303
299
299
256
505
431
287
277
284
287
296
307
326
338
336
322
297
285
283
284
285
291
295
317
314
294
287
286
283
179
660
307
272
265
275
277
288
306
325
329
328
309
283
278
279
285
282
283
291
316
309
289
292
290
291
185
660
306
275
271
279
289
304
318
332
344
344
321
302
297
295
299
305
307
314
326
343
321
317
318
320
268
568
478
313
308
308
319
331
344
365
377
383
369
341
331
330
328
330
333
335
332
343
365
350
342
337
339
324
432
612
325
316
319
320
332
346
364
378
386
373
348
328
326
325
326
328
325
327
331
352
347
335
332
331
330
237
662
333
312
308
312
320
329
343
366
370
367
343
316
309
308
306
308
309
304
306
319
330
306
300
300
293
213
617
363
276
268
270
272
282
296
310
318
316
302
270
255
256
250
252
253
254
253
257
279
272
258
258
262
259
178
648
265
245
244
253
264
274
293
314
322
323
301
280
276
281
282
289
293
301
300
308
332
323
317
316
320
319
302
656
323
311
311
323
325
343
357
377
392
384
361
337
328
327
329
329
337
335
349
363
358
344
339
337
338
321
650
330
324
320
327
339
352
364
378
378
378
353
324
321
326
327
331
328
338
364
350
332
337
331
335
230
662
331
312
309
315
317
330
343
360
360
361
338
316
309
307
308
312
312
315
338
326
301
300
300
293
190
661
294
274
270
273
276
291
309
323
327
325
303
281
271
273
273
278
280
290
314
301
291
285
285
287
202
659
294
274
272
281
289
303
320
338
348
345
322
300
295
301
301
303
307
310
320
331
315
310
307
307
274
469
513
294
285
290
292
303
316
333
350
355
344
318
297
296
296
299
301
308
311
326
327
309
309
310
312
210
662
328
294
294
298
307
323
341
357
372
372
348
327
317
317
322
321
326
334
357
342
335
331
335
331
244
662
336
318
313
320
332
349
359
375
380
382
355
332
320
322
326
324
332
347
359
337
333
333
328
326
355
646
319
317
310
318
327
341
360
371
379
369
342
323
317
325
317
319
327
353
341
324
325
319
325
224
662
331
302
301
305
315
323
340
358
367
367
341
312
304
303
297
305
323
333
317
308
298
298
292
228
649
291
273
271
276
285
302
313
323
333
324
304
278
266
266
270
272
277
293
290
271
267
265
263
214
491
387
254
245
246
254
262
280
295
310
310
300
279
267
270
276
279
282
289
305
323
306
296
300
301
300
307
661
292
293
298
302
308
329
345
364
375
371
350
330
320
322
323
327
324
329
329
342
355
336
331
329
334
254
642
412
314
312
311
319
332
345
360
370
374
364
335
319
313
311
314
315
314
317
330
334
322
320
321
321
280
504
468
306
299
302
309
317
333
347
360
370
359
328
310
308
306
309
307
310
309
313
324
324
311
314
316
316
222
659
317
294
293
298
306
318
336
352
363
362
344
319
307
309
308
311
314
321
321
345
333
320
323
322
320
235
659
328
308
309
315
323
334
348
359
375
370
349
319
303
309
301
306
302
303
317
328
310
299
295
294
269
405
472
284
278
279
285
294
305
324
330
340
333
307
292
288
292
292
292
301
318
335
308
300
302
302
284
409
522
298
293
294
297
313
324
343
351
354
348
331
319
316
317
320
325
337
359
350
331
330
327
329
230
661
366
321
309
315
324
336
350
367
376
379
357
336
326
329
330
332
334
348
364
345
335
332
333
326
299
661
320
308
311
314
322
331
351
361
367
367
343
321
317
313
320
319
319
323
338
344
324
319
321
318
272
547
493
306
298
304
306
317
331
348
358
361
350
327
307
305
306
309
308
310
314
328
336
310
310
306
309
253
577
477
297
291
287
287
301
313
335
351
348
334
309
303
291
291
296
288
283
286
299
294
274
275
253
197
164
661
265
253
244
250
244
250
264
276
290
282
265
219
233
242
228
242
194
267
279
297
276
292
321
290
286
227
661
288
280
282
286
294
311
316
333
354
335
286
325
292
300
341
342
340
331
329
335
344
342
347
332
322
436
581
321
331
298
297
307
328
274
362
347
378
343
360
355
325
325
326
335
342
347
332
317
327
309
307
392
573
312
306
306
317
309
293
301
343
314
372
352
329
322
309
318
311
309
323
320
297
298
305
300
205
639
340
289
299
310
309
315
322
331
337
339
335
319
305
311
313
320
337
345
325
311
311
311
282
429
432
310
304
310
309
320
327
346
358
362
367
346
322
325
316
309
336
346
322
312
309
313
296
366
528
307
291
293
296
308
311
324
336
343
344
324
307
302
301
309
332
330
307
293
293
299
283
372
553
301
287
289
291
301
315
331
341
345
349
329
322
318
318
322
338
344
314
303
305
311
274
510
490
313
307
314
314
328
341
353
360
367
359
336
324
320
320
330
344
337
320
317
325
318
273
657
327
313
312
320
321
329
344
353
358
356
341
323
319
322
326
349
341
320
314
312
308
217
660
324
293
297
300
311
319
338
347
349
349
326
302
293
298
299
326
327
309
306
303
306
237
614
363
295
291
296
303
313
332
347
354
361
343
321
310
311
311
314
341
329
318
309
314
316
277
653
311
299
299
302
311
324
339
355
361
352
332
310
304
303
308
316
334
335
314
314
311
311
249
658
314
295
296
302
311
323
337
355
356
354
331
312
306
308
308
313
321
342
323
315
312
313
271
533
441
302
295
299
306
317
335
349
359
363
352
328
315
312
314
312
317
330
340
321
316
320
314
230
654
360
301
297
300
310
320
335
348
359
360
344
317
311
306
305
309
312
330
331
313
309
307
310
231
658
308
290
290
295
304
318
334
342
359
353
330
311
310
310
313
313
319
342
339
321
314
313
307
339
619
302
291
294
301
312
328
343
355
363
356
327
310
309
308
311
314
329
341
320
313
311
310
215
660
336
294
294
295
302
316
329
346
351
352
336
307
304
300
304
304
306
318
329
309
300
297
299
207
638
325
276
270
273
280
297
313
323
331
333
316
287
273
277
273
275
281
303
306
281
281
280
279
207
648
286
272
276
283
295
309
327
340
347
345
332
320
321
322
324
331
338
359
354
332
331
332
319
423
610
325
318
317
321
333
344
365
371
370
356
327
307
305
306
303
302
316
329
307
297
291
295
221
582
362
274
263
270
271
285
300
317
326
327
310
283
268
270
271
274
275
279
292
301
291
288
289
292
198
660
310
287
282
285
298
316
330
356
365
363
348
319
313
307
308
305
313
319
338
340
324
325
323
313
334
595
313
309
311
322
325
342
350
373
380
368
349
331
329
341
338
332
354
350
331
321
320
316
274
534
449
311
303
303
314
322
342
359
378
376
361
344
317
331
325
330
327
343
351
336
326
323
322
278
552
497
314
308
309
317
326
343
348
364
362
337
321
307
305
304
299
304
310
318
316
300
292
295
302
209
660
295
285
285
288
288
303
313
319
328
331
308
289
284
286
291
285
288
298
315
313
302
304
309
306
205
659
333
285
280
293
300
310
323
350
360
358
338
315
310
308
312
311
314
313
319
326
320
313
316
317
279
522
471
313
307
314
315
324
335
346
362
360
348
317
303
305
309
311
313
314
323
330
314
306
311
308
244
598
383
293
287
291
292
307
327
340
350
355
337
312
301
300
301
308
312
315
327
323
306
302
307
312
249
659
315
301
307
311
319
332
347
361
363
361
334
314
308
311
317
321
320
334
344
337
327
327
325
307
428
578
309
302
303
304
327
335
351
363
364
363
320
310
317
314
306
322
312
332
338
341
324
313
323
305
301
643
303
286
281
294
298
319
340
341
358
348
325
298
293
301
295
303
309
315
326
318
312
311
312
274
496
487
309
296
295
298
307
314
330
345
353
344
315
304
302
296
298
299
314
312
306
294
295
291
255
470
434
276
267
274
281
292
305
325
338
344
323
304
283
289
283
288
292
309
310
296
288
289
291
228
604
365
288
289
297
301
312
328
345
356
362
344
319
311
309
314
319
340
355
343
331
330
337
316
418
582
311
305
304
310
316
328
345
357
361
348
320
302
294
294
297
312
318
300
285
286
286
261
420
448
272
265
263
274
281
288
310
317
322
308
280
272
269
274
279
292
305
293
287
291
291
288
299
610
292
279
293
294
307
320
340
341
349
348
328
320
321
324
331
347
357
343
338
336
337
334
377
659
325
323
324
333
340
353
371
378
380
371
351
341
339
338
345
359
375
360
344
339
337
330
328
660
313
310
307
313
324
333
349
359
364
357
331
316
315
313
318
323
344
344
329
319
325
317
225
662
362
295
286
294
304
314
333
351
357
355
332
310
302
303
306
308
311
320
332
320
311
313
314
296
392
582
300
288
293
298
310
320
342
353
357
346
323
305
297
305
305
308
313
315
321
320
314
315
316
290
477
523
307
299
302
311
322
338
353
361
363
355
325
313
309
310
316
316
318
317
320
325
332
321
317
321
320
212
662
332
303
295
301
308
317
335
347
357
356
342
308
302
304
305
311
306
309
321
332
322
310
310
311
295
382
575
302
292
294
302
310
326
339
353
358
350
322
304
302
299
303
307
304
310
314
328
325
313
315
315
314
276
652
308
295
296
303
312
328
342
354
360
353
328
307
303
305
307
310
315
315
322
332
320
310
309
308
294
387
578
301
290
293
296
307
323
336
350
350
342
314
297
294
296
293
297
299
302
302
319
319
309
306
311
312
206
662
336
291
286
292
302
313
330
345
357
356
336
310
302
303
303
306
309
312
313
317
344
331
319
318
316
315
272
660
314
299
303
307
318
331
347
361
367
366
338
318
315
316
315
318
317
321
322
336
352
331
326
322
323
258
594
427
306
302
306
314
323
340
354
367
371
355
327
314
311
305
308
307
309
314
331
347
323
320
324
318
235
656
348
297
288
297
304
322
336
354
359
361
339
316
304
304
307
306
315
320
333
348
331
317
319
317
304
405
584
312
298
302
310
317
334
346
357
359
352
325
312
313
313
314
319
320
336
350
331
315
316
312
310
345
637
304
298
297
301
313
323
340
351
353
348
323
304
309
307
309
310
309
323
337
321
309
305
303
296
315
633
291
280
281
284
294
305
321
332
338
325
298
280
282
283
283
286
284
298
320
306
284
284
280
280
203
658
276
261
259
265
276
288
303
317
324
321
298
282
282
284
287
290
293
302
326
321
299
296
296
298
197
662
375
292
288
291
302
313
330
347
359
363
347
325
317
320
323
317
320
318
325
344
327
317
316
320
316
333
661
298
297
309
307
320
334
353
365
380
368
338
308
259
350
342
324
330
330
350
347
328
324
310
306
194
662
377
304
275
239
322
337
359
397
404
397
373
341
337
346
331
336
329
329
340
363
365
351
343
336
328
208
661
341
312
291
273
300
312
329
359
405
387
351
342
327
338
318
312
318
324
336
319
306
330
312
327
222
661
261
292
277
336
341
367
361
352
353
361
389
328
303
310
310
301
285
324
333
312
299
292
274
194
517
416
297
316
313
297
269
308
320
326
327
316
264
259
253
238
269
270
265
277
264
259
236
270
233
404
407
253
330
237
318
292
301
310
337
333
321
297
277
272
273
283
285
310
311
301
301
299
308
239
589
310
288
289
292
309
327
337
358
364
373
362
335
330
327
321
343
340
314
298
301
303
263
519
382
317
311
313
326
329
335
348
341
337
342
320
305
300
305
327
343
318
299
304
291
280
310
546
282
266
278
275
295
303
314
323
319
313
304
293
291
295
306
329
324
304
297
300
298
222
657
291
278
281
287
297
310
327
343
343
342
326
314
309
312
319
344
348
324
319
315
314
229
661
367
306
303
303
314
330
343
357
362
365
348
330
325
324
332
357
359
337
325
323
322
250
649
418
313
306
310
323
334
347
360
368
370
351
331
320
322
328
334
357
345
328
325
322
316
347
652
310
302
299
302
316
326
343
350
355
343
318
301
298
297
294
308
322
306
291
286
289
264
389
521
268
256
261
267
277
290
305
319
319
304
283
270
267
271
271
277
304
292
277
275
277
276
272
617
280
266
270
277
288
299
319
333
340
336
311
298
296
296
302
318
334
315
304
306
310
250
589
409
299
296
301
309
318
337
355
364
368
350
324
318
319
321
319
333
355
346
330
327
330
311
418
590
317
309
310
318
328
341
360
371
375
365
341
322
321
324
323
325
341
347
329
320
321
323
224
661
341
304
301
307
315
324
336
353
360
357
336
316
313
311
312
311
321
338
327
311
311
307
288
417
527
295
289
290
298
310
320
334
350
353
342
311
301
303
306
306
312
330
323
303
302
303
278
401
492
282
278
277
284
292
308
320
327
329
314
285
271
268
263
273
292
303
287
271
269
274
218
521
348
253
252
253
257
268
282
298
307
314
298
286
281
285
296
297
330
336
317
306
305
306
220
661
337
293
293
300
308
315
332
347
357
355
343
327
328
334
334
345
363
371
350
338
333
338
238
662
383
327
317
326
329
339
353
364
372
370
355
335
335
335
333
335
347
365
344
328
325
321
277
549
500
302
297
299
309
317
331
343
354
354
338
313
302
304
306
305
313
324
341
323
307
306
307
243
604
423
296
291
294
301
309
322
341
352
351
339
315
305
310
313
309
315
315
320
339
322
311
310
309
252
570
451
289
285
286
292
304
318
333
343
345
330
301
287
287
287
288
290
291
297
323
310
295
291
291
286
291
633
287
274
278
283
291
304
324
335
345
339
316
294
295
293
298
301
304
304
309
337
326
311
307
320
282
491
510
305
309
305
317
322
340
357
374
373
365
333
319
324
320
322
317
329
342
354
339
327
328
337
280
560
449
320
320
318
328
338
350
367
381
381
365
342
328
325
326
330
329
341
360
348
334
331
329
322
328
641
314
309
308
316
323
336
351
366
371
360
331
317
309
313
311
312
317
335
344
322
316
313
307
231
626
377
291
280
284
291
298
315
329
341
341
318
293
279
281
279
279
282
285
297
303
281
276
276
277
190
613
330
261
252
257
263
273
294
308
320
320
302
278
271
272
272
276
276
281
291
305
294
288
288
287
247
500
438
280
276
276
287
298
313
334
348
353
338
315
301
303
306
310
311
318
333
338
326
323
324
324
238
658
397
316
312
316
325
338
353
369
381
381
364
339
334
333
335
337
338
341
360
362
341
340
338
337
233
660
351
316
316
322
324
344
357
367
375
373
351
323
309
310
310
313
315
329
336
322
317
311
314
302
382
555
308
299
305
306
314
328
337
348
348
336
315
303
306
305
304
312
318
337
332
312
309
308
311
217
660
308
293
285
292
297
308
325
341
344
340
313
302
297
298
299
303
306
335
329
308
301
299
296
196
662
327
282
277
287
298
306
328
341
348
353
327
309
305
306
306
311
316
321
346
334
322
317
318
319
290
659
315
302
300
308
318
330
348
366
370
362
335
316
315
311
315
318
319
320
338
339
323
319
321
317
218
661
366
300
291
295
299
312
325
340
350
353
331
308
294
294
296
299
299
301
302
305
322
311
302
299
300
283
381
586
289
283
282
298
300
314
332
346
353
344
321
303
298
298
302
305
310
313
332
336
320
316
320
314
235
644
381
309
309
309
323
334
348
363
375
370
349
329
318
314
320
321
323
329
344
346
331
325
323
318
296
448
531
305
310
292
311
310
330
333
350
356
340
313
302
304
299
312
306
317
334
336
310
306
303
309
221
660
295
290
283
278
289
296
309
317
323
327
316
300
303
307
310
310
318
339
333
315
308
309
293
216
643
366
300
298
283
296
303
304
324
324
327
279
241
359
313
342
362
368
342
399
343
353
367
337
285
530
625
288
281
278
281
276
284
298
304
323
314
303
301
295
196
309
311
311
356
322
330
350
306
301
173
661
378
274
276
271
276
291
288
305
315
329
313
305
331
310
254
356
324
367
331
354
341
336
336
241
663
416
307
301
295
290
307
333
334
352
349
330
305
292
283
288
285
297
316
305
288
292
288
279
330
498
282
265
270
279
285
306
318
330
339
341
325
304
298
304
301
317
334
316
303
303
305
286
415
484
302
298
296
304
312
328
336
348
354
348
333
317
315
314
318
339
338
315
310
309
312
238
610
375
306
302
309
315
327
340
349
359
358
348
327
322
317
317
331
347
326
311
308
304
285
381
522
294
283
286
295
306
313
328
337
337
331
315
296
296
299
315
328
317
300
299
302
288
353
568
304
295
300
313
331
347
361
367
371
359
338
328
330
333
354
363
346
337
338
341
268
624
410
318
308
307
316
329
342
357
361
365
352
333
319
322
329
348
331
312
307
303
291
351
537
296
288
291
304
314
328
336
346
350
340
314
303
297
303
323
322
306
292
294
295
204
655
323
278
274
282
290
302
315
329
333
332
315
294
295
294
299
324
320
303
297
291
296
241
652
295
279
282
290
301
310
329
340
340
337
313
303
303
303
308
328
330
311
305
305
305
231
659
307
289
287
297
309
318
337
347
351
352
328
312
307
309
311
330
344
327
313
310
310
212
661
334
291
288
292
298
310
326
338
345
345
324
306
298
299
297
305
323
323
305
298
298
288
372
528
287
277
282
283
294
309
325
338
346
336
308
297
300
297
302
316
328
304
297
298
295
217
649
300
276
278
285
291
309
323
338
340
337
317
292
288
292
295
300
324
316
293
298
293
254
490
417
291
287
285
299
305
321
334
339
340
328
307
300
297
301
313
332
346
327
312
310
312
213
660
315
298
293
303
317
327
346
355
358
352
336
323
317
327
328
338
364
362
337
329
326
302
470
569
313
306
313
321
328
343
354
363
365
352
329
325
325
328
331
342
366
345
330
327
327
242
661
403
308
306
308
315
325
340
355
361
360
340
318
319
317
318
319
327
350
344
323
321
316
304
393
614
306
298
296
303
312
329
343
355
357
344
320
309
308
307
313
312
320
342
339
316
313
311
300
346
622
300
288
291
298
310
325
343
353
357
346
320
304
305
307
310
311
313
314
337
330
314
307
307
295
370
593
290
280
277
282
289
304
317
330
333
322
294
276
274
276
270
272
274
271
283
296
277
269
267
270
164
659
285
257
250
260
266
282
299
316
324
325
302
280
275
279
283
284
290
290
293
305
323
307
303
306
305
203
661
330
294
290
297
305
320
343
357
379
384
357
330
319
310
310
311
314
321
326
336
360
348
338
337
347
243
662
356
328
325
331
340
355
370
386
397
397
371
345
334
337
331
329
326
330
332
336
353
344
327
328
324
254
609
399
307
296
302
306
319
332
349
361
363
347
316
298
300
297
297
296
301
301
313
324
305
299
297
298
205
658
314
289
284
291
293
302
318
331
339
340
322
307
306
306
311
317
315
315
318
340
332
315
312
313
304
372
639
302
293
293
292
309
316
330
345
350
340
308
290
289
279
280
280
276
272
294
297
279
268
270
263
159
642
279
248
239
244
254
270
278
300
310
308
285
262
256
258
260
261
273
274
288
310
296
288
290
292
223
588
372
287
284
292
302
317
338
362
368
378
363
338
333
327
329
332
336
340
346
370
361
343
345
345
324
465
555
339
332
336
344
354
371
390
396
398
390
363
344
341
341
342
347
353
365
375
354
345
341
341
270
644
414
324
318
324
330
344
349
365
375
374
355
332
322
322
321
321
322
328
347
339
321
316
317
313
267
661
299
295
291
295
304
315
336
348
354
347
322
304
302
306
305
305
309
328
337
313
308
307
303
197
662
343
287
282
288
298
313
329
340
354
350
332
310
302
305
304
302
307
309
323
331
312
310
309
307
210
659
345
292
290
293
302
310
327
345
355
355
336
313
297
301
303
309
306
311
326
334
310
310
309
307
210
659
330
297
295
299
303
321
338
349
356
354
325
301
288
288
284
286
288
291
311
295
275
274
270
251
351
461
249
235
237
241
247
261
268
277
276
269
248
233
228
232
232
237
246
267
260
243
243
245
247
180
626
263
247
253
261
272
290
310
325
336
334
314
305
309
314
320
327
339
363
362
345
341
347
349
251
662
364
342
342
346
355
372
387
403
409
407
383
365
365
360
363
364
366
386
394
372
363
363
361
305
606
543
341
334
338
344
354
367
385
392
394
379
349
337
335
338
336
335
337
336
344
363
344
335
333
334
277
580
497
313
309
311
313
324
338
356
369
370
356
331
317
314
311
316
313
316
315
319
343
334
321
316
315
313
254
660
307
293
290
293
300
311
329
343
346
343
317
296
289
287
284
289
288
286
285
287
296
309
286
279
278
277
181
617
307
250
248
251
253
265
276
293
306
309
289
262
248
243
250
254
254
261
264
289
302
282
276
275
274
208
588
339
273
272
272
290
297
314
327
339
341
333
309
305
309
313
317
329
340
352
363
338
328
330
340
281
603
433
325
322
339
328
346
354
368
376
376
366
351
342
346
344
349
350
354
379
369
341
337
334
333
238
661
310
308
308
312
324
335
348
357
356
353
331
315
312
311
317
324
325
333
349
334
312
313
310
307
203
664
274
281
282
292
294
302
320
331
336
334
325
312
309
318
301
315
308
209
294
339
361
349
332
332
350
301
580
651
359
333
325
332
339
327
326
351
352
359
341
304
291
313
317
282
275
340
356
319
360
352
381
343
347
205
662
389
320
306
309
327
326
318
342
354
332
326
326
296
258
319
309
350
348
379
341
339
329
295
340
341
240
663
323
271
268
311
289
274
299
314
314
298
279
233
260
284
273
276
293
289
268
316
295
289
277
273
146
627
287
243
207
238
303
264
275
283
311
291
280
255
248
238
248
251
263
278
292
265
274
293
275
208
543
338
284
290
299
300
323
328
343
356
360
356
331
325
313
321
326
332
350
330
319
327
326
322
355
562
327
325
325
328
340
348
366
372
376
373
361
340
335
336
332
347
364
353
337
334
333
334
266
656
340
319
317
321
326
334
350
355
358
352
333
314
307
302
302
316
329
312
291
287
284
276
286
570
269
255
250
261
267
275
292
302
305
297
279
265
262
261
267
288
297
275
271
274
275
201
581
341
268
264
271
285
295
315
325
340
341
331
310
305
309
312
328
350
336
324
324
325
324
318
647
325
319
320
327
336
352
368
379
385
378
358
343
344
341
346
366
365
346
345
343
344
248
662
374
325
321
325
334
348
355
366
377
375
358
337
330
326
326
341
351
330
324
321
322
249
617
391
302
296
298
306
318
326
341
346
346
330
306
303
300
299
311
322
301
292
289
289
216
594
350
272
266
271
279
292
304
315
324
324
307
289
286
282
287
304
308
293
288
289
291
198
658
314
283
280
286
293
310
323
338
344
347
327
310
308
307
314
334
335
319
317
317
318
246
658
327
309
305
315
320
330
346
358
364
360
336
321
318
317
320
342
341
325
320
324
321
275
649
322
307
304
313
321
335
349
358
363
361
335
319
315
313
316
328
336
324
317
316
316
233
647
355
302
298
301
310
321
336
350
358
355
341
317
313
309
310
308
329
336
322
316
315
315
220
657
334
298
296
302
313
324
338
350
359
355
335
313
308
308
308
309
322
339
325
317
320
316
264
548
402
298
295
299
305
317
332
346
354
356
338
315
302
300
299
299
302
319
327
308
300
296
295
202
654
305
272
272
275
285
297
311
321
328
325
300
281
276
274
275
277
280
292
307
292
284
283
284
194
622
327
274
273
278
292
301
316
333
339
341
326
304
302
302
302
309
309
319
340
330
319
318
320
278
508
447
306
312
310
317
330
343
359
372
372
355
331
319
317
314
320
322
326
347
339
328
320
325
296
460
478
315
307
309
319
325
340
354
368
367
355
336
314
317
319
324
324
341
357
339
325
333
324
249
609
385
305
296
305
315
323
332
347
356
347
333
314
313
308
312
321
330
348
349
324
313
313
315
227
662
300
298
299
304
309
320
336
345
350
342
324
313
319
316
322
329
341
362
344
329
320
320
304
423
624
304
296
300
301
308
324
337
347
348
335
315
306
309
307
310
312
327
343
324
311
313
312
251
592
456
296
285
289
298
311
325
342
352
350
334
305
300
302
305
306
307
313
328
332
309
302
304
304
209
660
306
282
281
285
293
308
320
335
343
335
307
286
286
282
285
289
292
292
316
306
290
295
294
288
303
609
278
271
266
271
281
295
313
329
335
324
296
281
282
282
281
286
285
309
313
298
287
285
288
192
659
318
282
283
286
294
306
322
335
344
344
325
303
306
302
309
319
328
353
354
331
328
327
326
225
662
358
313
310
314
321
336
351
365
369
368
342
329
324
331
327
336
340
359
363
339
328
332
330
225
662
358
312
308
313
320
335
348
367
375
372
344
323
322
320
321
320
325
333
346
332
324
319
320
281
514
508
308
300
303
306
319
336
350
360
363
346
316
304
306
305
312
313
315
337
340
327
318
314
316
240
637
400
299
294
301
306
319
332
352
358
361
338
311
306
301
302
307
306
312
310
316
327
322
314
318
314
274
515
485
302
294
296
304
316
329
344
356
363
344
314
304
299
301
306
305
312
310
320
327
323
314
319
315
264
555
449
306
296
305
304
316
331
349
360
362
347
318
304
306
306
306
314
313
316
313
325
328
319
317
319
316
235
658
311
297
296
298
302
318
335
347
354
340
322
301
291
294
288
296
296
303
316
329
306
313
306
307
234
590
357
290
278
297
286
297
323
335
340
346
337
308
319
310
311
319
323
336
348
334
325
315
312
308
217
661
296
302
300
299
309
316
325
333
337
328
310
305
300
298
307
310
327
350
343
317
307
312
313
225
661
304
289
283
296
301
311
315
321
333
340
317
334
326
307
318
332
331
367
356
321
311
268
351
248
663
509
365
330
362
338
340
369
411
379
381
368
361
323
346
331
312
301
298
293
315
298
285
298
294
306
368
662
294
288
208
332
306
347
379
374
419
359
359
328
323
327
330
339
333
349
323
300
289
268
249
382
619
277
247
276
295
253
343
343
341
332
351
370
335
322
322
314
304
304
317
284
265
264
244
200
419
398
238
218
240
250
254
234
253
293
262
208
233
271
245
260
272
279
255
270
240
228
225
225
119
606
254
203
202
211
230
258
279
296
307
305
289
271
264
262
261
267
280
292
281
284
294
294
234
557
379
294
295
304
323
335
355
366
372
372
371
346
342
342
342
351
367
371
353
348
351
348
268
659
376
338
338
340
351
364
373
388
390
388
374
354
348
349
351
360
373
358
346
345
348
318
500
487
342
339
338
343
356
370
384
391
395
385
359
351
347
342
355
369
357
339
335
334
313
431
500
320
311
312
316
320
329
343
348
351
338
317
304
300
301
310
319
299
287
286
286
222
566
338
273
272
274
282
293
310
321
327
324
305
285
283
283
290
307
303
286
286
285
280
358
509
288
283
288
293
303
317
336
346
349
340
321
310
310
317
332
334
317
316
316
315
320
605
321
306
308
315
323
339
353
367
370
357
335
323
318
320
337
347
320
314
316
311
291
609
301
292
287
296
308
317
338
349
353
343
315
296
297
298
319
315
297
295
296
256
484
404
287
275
282
293
299
313
331
339
341
327
310
304
302
324
339
324
309
307
301
214
659
320
292
287
292
295
310
321
330
332
334
320
316
309
306
331
337
322
304
305
299
221
660
291
285
291
290
306
320
325
345
348
342
319
312
308
313
340
329
326
315
311
292
432
530
303
301
301
317
330
346
362
373
370
349
328
322
321
322
343
358
337
327
321
302
432
542
309
306
307
312
320
333
344
356
357
332
310
296
295
293
292
304
315
299
287
281
277
287
581
267
255
260
260
272
289
304
319
322
307
283
273
271
275
276
296
311
296
288
284
278
351
559
281
272
274
282
294
307
330
344
347
335
308
303
306
309
314
333
347
329
324
325
307
436
548
309
300
306
311
316
337
356
360
368
347
320
308
308
307
309
324
338
328
309
307
305
262
650
300
288
288
289
302
316
336
347
353
339
318
308
304
308
308
318
339
345
316
311
309
265
533
463
297
289
291
299
315
333
356
363
362
339
315
304
307
312
309
315
341
344
318
311
314
251
603
419
300
297
294
310
317
340
356
369
370
348
323
316
317
316
321
324
324
336
353
332
321
322
318
303
655
317
305
303
308
316
333
352
365
372
360
332
315
315
310
317
319
321
320
326
334
350
328
317
322
303
408
592
307
300
300
306
315
332
348
366
369
355
328
311
310
311
308
310
315
315
315
322
344
333
314
316
315
208
661
324
296
291
297
306
319
336
353
362
355
328
311
306
304
302
308
310
312
312
315
335
338
318
314
313
269
533
467
298
292
299
301
315
327
346
362
366
349
321
306
307
302
299
309
307
313
308
327
