358
312
577
461
356
356
365
376
389
402
422
435
437
410
372
354
352
356
359
363
368
372
390
398
382
375
375
375
376
333
658
371
363
362
373
376
388
402
419
426
414
374
343
336
340
343
346
348
344
351
355
374
367
355
353
359
360
284
658
395
350
346
356
361
372
394
418
427
432
405
367
347
345
349
355
361
363
370
375
398
398
380
383
382
387
319
660
468
377
371
380
387
399
416
436
452
451
425
383
363
362
361
366
371
373
377
394
404
389
378
379
381
377
336
660
370
361
364
373
382
393
413
429
440
428
384
357
352
353
354
358
365
368
371
376
396
399
381
379
379
380
342
578
524
374
370
376
386
394
411
431
445
448
428
387
365
364
368
369
373
379
377
381
384
390
408
398
388
386
386
387
297
661
404
377
376
381
391
397
414
435
445
441
409
371
362
364
365
369
371
375
379
380
385
387
408
401
388
385
387
386
305
662
415
374
374
381
389
397
414
435
441
446
420
383
364
366
363
369
365
371
374
375
393
404
387
381
381
384
379
350
657
381
369
373
381
392
400
423
439
449
443
401
370
358
359
364
369
375
377
401
407
390
381
383
383
383
331
661
380
371
369
377
387
402
422
440
452
442
398
368
356
360
360
363
366
376
397
392
375
376
373
374
336
576
512
365
365
368
376
389
403
423
437
444
420
380
364
361
367
369
372
375
384
400
397
382
380
382
382
338
592
512
370
364
370
378
388
402
423
434
437
414
375
354
354
359
361
365
367
368
378
394
392
378
374
375
376
316
630
459
364
360
366
373
382
393
413
424
429
403
368
346
345
350
352
353
356
358
363
380
381
362
363
367
362
312
607
438
360
357
363
371
385
401
423
438
439
420
375
354
353
358
361
365
367
375
398
400
378
376
378
380
359
500
584
375
370
373
381
394
407
429
443
447
430
389
364
362
362
369
372
376
382
402
404
384
382
385
384
370
467
626
377
373
377
385
395
408
426
443
449
431
390
368
366
369
374
376
379
379
385
405
402
387
384
386
387
331
626
492
372
368
375
386
396
414
427
444
445
422
377
366
361
367
365
370
369
371
371
377
389
396
379
371
378
375
351
507
537
369
365
370
377
386
401
419
437
442
428
387
359
353
354
359
363
364
366
370
381
397
388
378
373
375
378
294
662
413
371
369
373
380
395
410
432
442
444
412
373
359
358
359
366
369
369
374
384
401
392
380
381
380
381
294
662
420
367
363
373
382
394
412
429
443
445
412
373
364
364
366
368
373
376
380
382
387
402
412
397
390
390
391
382
418
656
381
377
379
386
395
405
425
439
448
439
400
372
366
367
367
370
372
372
375
377
379
385
403
402
386
383
385
384
314
659
461
374
373
374
384
390
407
424
440
442
418
378
357
356
361
361
364
365
369
372
377
378
384
402
398
385
383
384
384
297
662
410
374
372
380
388
395
411
431
442
444
416
378
366
363
364
369
369
373
372
377
379
384
399
402
389
383
385
384
328
632
462
380
370
376
385
394
405
426
444
443
428
382
359
353
355
357
360
360
366
366
372
391
394
378
374
377
377
325
611
455
367
363
369
373
389
405
429
439
446
427
384
364
358
361
364
366
374
375
384
406
396
385
384
385
386
306
661
451
377
369
377
386
395
414
433
447
452
420
379
364
362
363
367
370
372
378
398
399
383
383
387
387
364
507
598
375
368
374
381
389
407
425
442
447
430
385
365
363
365
369
370
375
375
376
392
404
391
385
387
387
386
326
661
381
372
373
382
387
401
418
438
444
440
400
367
361
361
362
369
367
369
372
377
391
402
385
380
381
378
378
365
657
373
367
370
377
385
398
418
432
443
436
392
364
357
358
358
362
364
368
370
373
378
395
391
377
378
381
376
304
660
419
370
363
373
378
390
408
426
440
444
416
377
354
353
354
360
366
367
368
375
391
400
383
377
378
380
378
374
652
382
372
377
383
392
407
428
446
453
445
402
371
361
363
365
371
376
378
380
402
405
386
387
382
385
380
374
659
379
370
375
381
394
400
423
438
450
438
396
366
362
361
364
369
371
373
376
387
406
389
382
382
380
380
285
662
390
366
363
369
378
388
407
426
438
436
400
364
353
355
357
363
367
368
374
390
401
388
379
381
381
379
313
661
378
368
375
378
386
397
415
435
443
441
396
361
348
349
353
359
359
361
366
381
391
373
368
365
365
368
331
651
368
355
364
366
372
391
410
429
441
431
392
357
346
345
346
352
356
364
386
387
366
362
364
366
355
434
601
364
354
362
365
381
398
420
434
443
428
387
361
358
359
363
366
372
395
398
379
373
374
375
376
299
662
378
367
367
377
383
396
420
440
445
436
394
362
354
355
360
365
369
380
401
388
380
378
381
382
322
645
484
369
364
368
375
386
401
423
437
442
409
370
354
354
360
361
365
367
370
381
398
387
380
378
378
380
286
662
388
365
364
373
382
388
406
425
437
433
400
364
351
358
358
362
366
363
369
375
379
392
405
388
382
382
380
370
448
607
378
373
378
387
390
410
425
444
452
443
404
368
362
361
364
373
371
371
379
396
407
387
382
383
383
372
433
624
372
368
373
376
386
401
422
437
444
430
384
356
355
356
361
368
373
381
404
403
381
379
379
381
358
508
600
369
365
368
379
390
403
425
441
446
425
380
358
352
358
359
365
367
382
399
390
375
373
376
374
301
660
440
361
358
363
372
385
403
424
437
438
410
369
356
356
361
363
367
369
374
381
399
390
381
380
380
378
306
660
446
367
365
372
380
389
404
424
435
441
412
373
358
357
362
361
368
368
372
381
400
391
378
378
379
381
295
661
410
365
361
370
378
386
405
423
439
438
412
370
352
357
356
359
366
367
374
391
400
379
375
381
373
364
430
599
372
362
368
376
385
399
419
434
442
431
389
358
350
352
355
358
365
378
396
392
376
373
377
374
319
628
473
362
355
362
370
384
396
415
431
433
406
363
344
343
345
351
357
361
380
390
376
368
370
373
373
287
661
376
362
363
373
383
395
414
432
440
434
395
363
355
357
362
364
368
369
383
397
385
377
379
381
380
294
662
388
369
367
377
383
393
411
429
438
435
400
367
357
361
366
367
371
373
376
389
404
392
385
385
387
388
300
661
398
377
377
382
390
400
415
436
442
443
408
373
365
365
368
369
374
372
378
387
402
394
385
382
384
381
301
660
409
374
376
379
389
401
415
434
444
447
419
378
364
360
364
366
369
373
381
401
396
383
378
383
380
338
598
474
372
368
375
379
394
411
426
441
446
424
383
361
358
360
362
367
373
393
400
382
380
380
382
383
306
662
381
370
373
377
388
401
420
437
445
438
397
365
358
361
363
367
372
383
401
392
381
379
383
383
320
654
479
372
366
374
380
392
409
426
437
440
411
373
356
359
362
365
374
375
379
396
390
379
376
378
380
325
611
490
368
365
368
379
387
401
418
431
435
411
371
355
354
356
363
366
365
366
376
396
387
379
379
380
379
295
661
415
370
368
373
382
390
406
427
437
438
407
372
356
358
360
364
365
367
369
373
386
403
392
384
381
388
387
311
660
388
370
372
383
389
399
418
439
448
444
408
375
359
359
363
367
369
373
378
396
398
376
378
382
381
334
599
480
369
366
372
378
392
408
431
440
440
421
375
356
356
358
359
368
369
388
403
387
377
379
382
379
286
662
393
365
368
372
386
399
418
438
446
441
402
368
356
358
358
362
368
372
390
397
383
381
380
382
380
351
660
371
364
369
371
381
391
412
431
437
424
381
353
349
353
357
365
364
368
370
376
398
388
380
377
380
382
293
662
418
372
369
377
385
394
412
431
441
440
410
372
360
360
362
368
370
373
376
389
407
392
385
384
387
384
302
662
389
372
373
380
391
401
418
433
442
436
399
368
356
360
361
367
368
371
384
397
386
382
376
380
381
305
661
388
367
375
385
392
400
416
439
446
438
399
370
363
358
362
366
380
394
394
376
370
376
377
354
515
522
370
365
371
380
389
403
426
439
444
421
381
354
353
355
359
370
391
391
376
371
370
373
372
349
658
369
364
365
372
385
398
417
434
441
429
386
354
350
351
357
361
383
387
372
368
369
370
370
303
662
371
358
358
370
378
391
410
426
437
428
384
357
357
355
358
364
370
380
397
383
377
382
381
380
287
662
407
367
367
372
381
391
409
425
436
434
399
366
356
357
362
363
369
370
373
379
397
392
383
381
383
386
299
662
416
370
371
379
385
392
409
425
437
438
407
372
359
360
364
370
370
373
376
380
393
407
391
384
383
388
374
420
629
377
371
374
381
392
405
423
440
448
432
395
366
355
358
362
365
369
373
390
399
382
377
374
379
379
366
648
375
366
365
372
386
401
415
435
442
433
393
359
352
352
359
359
371
389
397
378
370
371
373
374
315
661
376
363
366
376
387
399
417
430
438
424
380
347
341
341
343
349
362
381
381
369
367
371
373
354
477
594
366
361
365
373
385
399
418
431
437
414
370
351
352
354
359
363
365
381
389
383
378
377
376
372
355
659
371
362
366
370
380
391
410
433
437
424
383
352
348
346
349
352
359
379
396
378
369
367
375
369
287
661
374
361
358
368
374
389
411
425
432
422
390
358
345
349
356
365
385
408
402
383
387
389
388
331
658
524
378
373
377
387
398
416
435
445
448
419
379
361
360
363
364
381
399
390
373
375
375
376
314
660
502
370
365
375
382
396
414
432
444
444
409
369
358
357
361
364
372
394
397
380
375
377
377
373
402
658
368
362
367
377
389
404
424
442
446
421
379
351
350
354
356
361
362
375
395
380
376
373
375
376
273
662
398
361
363
373
383
393
410
427
435
434
392
358
348
352
353
362
365
367
372
382
400
385
379
375
379
377
313
662
374
367
367
376
382
395
412
430
434
428
391
358
350
351
357
362
362
362
376
393
390
383
377
385
379
298
662
416
369
367
373
384
391
413
433
440
441
403
367
351
349
351
354
361
380
397
382
377
366
371
371
277
662
401
355
354
358
375
392
410
421
424
425
391
357
339
340
339
349
376
390
375
367
365
373
368
274
663
400
360
350
351
362
381
396
417
421
415
378
347
343
349
358
376
402
408
384
375
369
369
367
364
662
375
374
381
392
404
421
440
448
451
426
385
371
366
370
373
389
414
413
388
385
386
386
363
531
648
368
365
369
378
387
406
426
438
435
404
362
344
346
343
345
348
355
368
367
354
352
355
356
299
632
534
345
342
348
360
372
391
412
425
424
394
356
341
342
347
352
356
363
364
373
384
384
386
386
388
380
417
662
375
373
373
384
392
405
427
440
446
430
384
360
357
362
363
370
373
375
376
390
412
398
393
387
388
389
321
663
390
378
375
383
391
403
420
437
443
436
396
361
354
359
361
363
369
369
372
385
405
387
380
380
380
377
336
661
369
358
361
371
379
392
412
429
436
424
380
351
348
351
353
362
362
361
378
392
376
369
372
376
374
336
661
370
360
360
369
379
392
414
431
440
425
384
355
348
350
355
357
362
378
394
383
375
371
375
376
289
662
412
363
365
366
380
393
413
437
445
444
406
366
350
353
352
358
363
379
400
390
377
375
377
378
289
662
436
366
362
373
382
396
413
436
444
448
407
370
355
359
361
365
372
378
402
395
381
379
383
383
308
661
487
372
368
373
382
397
411
432
445
447
410
367
352
352
355
358
360
372
393
398
378
374
374
377
357
486
628
364
363
363
375
385
401
424
440
442
421
375
356
354
355
360
364
365
379
398
387
381
379
381
381
276
663
402
363
362
369
381
389
411
429
438
430
394
355
349
351
352
357
364
362
371
394
387
376
374
375
378
277
663
418
362
362
367
379
387
402
421
432
432
390
359
349
350
353
356
361
363
377
392
378
374
376
375
378
305
662
375
364
362
373
381
393
414
429
437
428
386
355
352
352
356
360
363
368
382
394
381
377
381
380
377
380
658
373
367
370
378
387
400
420
435
442
427
386
359
354
358
360
366
367
372
392
396
381
379
381
383
352
543
556
371
369
374
381
390
405
427
440
446
425
380
356
355
359
363
367
371
381
402
388
378
375
378
381
294
661
409
369
367
378
384
396
416
434
442
443
411
375
357
361
358
366
368
375
394
395
380
375
379
378
326
613
517
366
361
368
375
386
403
418
430
433
405
364
348
351
353
357
362
372
392
386
374
377
379
383
320
648
498
372
367
372
380
390
402
425
433
434
406
366
355
355
359
364
368
369
388
392
378
376
377
378
360
478
606
367
364
366
376
385
399
420
433
436
416
378
356
354
359
360
370
368
378
394
387
375
380
378
380
296
661
424
376
370
381
385
399
418
431
438
444
412
370
353
346
349
355
359
371
388
376
366
368
371
371
275
662
403
359
359
370
375
389
410
423
434
429
391
362
356
359
364
367
376
398
397
379
376
378
380
362
495
642
367
363
368
375
385
397
414
423
429
403
360
342
343
348
351
353
356
368
383
364
357
360
360
359
316
662
350
347
350
360
366
379
396
410
417
408
366
337
335
340
345
349
353
363
382
371
362
366
370
372
280
662
371
361
364
369
379
390
405
420
430
422
377
346
339
344
351
358
366
376
392
376
370
373
373
371
347
657
368
364
369
378
387
401
417
429
434
419
379
353
353
361
368
370
378
403
391
381
385
390
386
309
661
423
377
382
387
397
407
426
441
450
450
417
377
365
363
368
372
384
400
397
378
377
378
384
308
660
437
373
370
379
387
397
414
432
441
435
411
375
360
359
361
371
391
399
380
372
371
371
370
343
660
366
363
348
363
377
393
413
427
431
411
370
347
341
342
344
364
386
380
360
363
365
368
293
662
508
357
361
363
377
384
402
418
425
424
386
360
348
354
356
365
388
390
374
369
366
372
361
462
661
360
363
365
371
385
400
415
425
429
407
365
354
355
361
369
369
387
402
379
372
376
378
373
376
662
367
366
371
379
387
402
416
428
433
413
374
352
357
355
358
361
365
374
396
376
374
379
380
374
405
648
366
362
369
379
392
403
421
433
437
416
377
353
353
353
361
363
372
386
393
385
374
380
377
332
578
484
365
365
373
381
397
411
430
439
450
418
378
359
360
358
365
368
377
396
400
382
384
384
380
325
645
457
373
372
379
389
398
417
430
447
440
411
367
350
348
349
350
354
374
387
369
366
371
371
371
341
660
370
364
360
373
383
400
412
424
428
408
370
351
353
359
361
369
378
399
394
379
376
377
378
318
643
536
363
361
368
379
393
409
428
438
435
403
366
356
359
363
367
371
378
378
402
391
384
384
388
389
289
662
404
377
377
381
392
406
423
446
449
445
406
370
362
357
363
371
368
370
380
405
392
381
383
384
383
300
662
385
369
369
378
387
401
424
441
444
434
394
361
353
353
358
362
363
369
392
396
379
372
373
376
333
576
566
362
359
359
370
380
399
419
426
427
401
360
352
353
356
363
371
371
377
394
396
381
375
375
380
334
618
586
371
360
366
377
385
404
428
440
442
414
371
353
355
357
358
363
362
367
384
398
386
377
378
380
352
509
578
368
361
367
375
387
403
422
433
441
417
375
356
355
358
365
368
373
378
385
405
390
382
386
385
384
318
663
377
372
372
379
390
400
421
437
446
434
389
363
355
357
360
364
370
371
385
404
388
386
381
383
380
333
662
375
370
371
387
395
403
428
439
451
435
390
365
360
362
363
372
376
378
390
399
380
380
380
383
346
559
506
373
371
375
383
398
415
433
439
446
419
376
354
348
352
352
360
369
387
390
373
369
370
372
322
602
483
360
358
363
374
383
399
418
431
432
401
358
347
348
349
353
356
366
386
386
369
370
373
370
323
607
505
359
354
362
373
383
399
419
430
429
397
361
347
346
352
359
363
371
394
385
372
371
372
377
297
661
448
365
364
367
383
390
406
426
441
434
400
363
348
348
352
359
363
362
378
394
377
370
370
376
375
333
658
379
367
369
380
388
399
411
429
429
418
373
347
339
348
353
362
373
375
383
409
397
385
386
389
394
289
663
410
382
384
389
397
411
429
445
455
443
401
372
366
368
370
375
380
386
393
409
393
387
390
391
389
346
662
376
377
375
384
392
404
421
437
438
423
376
351
350
349
352
359
365
372
375
396
388
378
376
377
377
290
661
397
365
364
370
381
392
406
423
433
428
391
352
347
350
352
355
358
365
369
377
395
384
374
376
376
379
316
658
379
366
371
377
388
397
419
436
441
432
396
361
353
358
359
363
366
370
372
377
396
397
383
379
378
378
314
649
445
374
366
371
382
392
404
414
422
421
395
352
338
342
349
357
365
371
376
378
401
395
380
384
383
382
288
662
390
368
373
379
386
397
414
431
438
431
392
361
355
355
356
362
360
365
379
395
384
377
379
380
382
293
661
386
368
367
383
385
396
411
427
434
427
384
356
344
349
353
355
359
361
365
376
393
379
372
378
379
370
415
598
374
367
372
381
389
407
419
432
436
415
380
354
350
354
360
365
365
371
385
397
383
380
382
382
380
351
650
380
370
374
384
391
405
418
434
444
427
385
363
354
360
361
368
377
376
384
396
406
389
390
389
386
356
536
511
379
373
380
384
394
416
430
441
445
419
378
352
351
350
356
359
369
373
393
396
377
373
373
372
337
546
528
364
362
366
377
387
401
420
431
434
406
367
350
350
357
358
364
372
385
395
383
375
373
378
376
351
660
367
361
366
375
387
400
415
433
436
422
379
352
353
354
359
366
366
373
398
392
381
378
378
381
331
617
474
374
370
377
384
391
406
431
443
440
415
370
356
356
360
360
366
370
377
398
391
379
375
375
377
299
661
410
369
364
378
386
397
415
434
444
442
407
366
357
351
355
362
367
372
390
400
383
375
375
377
369
406
640
370
365
362
374
382
395
418
429
435
416
370
347
346
349
350
358
358
369
390
380
370
372
373
374
296
662
433
362
358
365
377
385
404
423
436
432
392
357
348
352
356
354
362
362
371
372
388
400
383
378
380
382
360
495
597
373
369
374
383
393
407
422
438
441
421
379
359
354
356
361
363
365
367
367
385
392
380
381
380
388
377
425
642
374
369
372
381
388
402
423
439
446
422
381
358
354
358
359
364
367
369
370
386
398
384
379
377
381
378
366
657
373
363
365
377
381
397
416
434
441
424
381
354
354
351
355
362
365
368
370
383
401
391
385
388
391
390
308
662
390
377
379
386
396
411
428
448
460
452
416
379
363
362
362
366
372
375
384
407
398
386
384
387
386
314
660
438
373
367
375
384
394
411
435
444
444
411
370
351
349
349
359
362
365
375
394
384
370
371
372
373
284
661
415
362
358
364
374
384
402
421
431
426
388
356
346
340
345
353
361
350
365
378
366
365
363
366
370
278
661
370
352
353
359
366
385
402
420
428
421
379
347
339
347
348
359
359
365
379
388
377
373
374
374
381
284
662
391
362
367
373
383
395
408
423
434
427
388
359
350
356
358
359
366
369
387
395
382
376
378
379
380
359
658
375
372
380
381
389
403
422
437
450
428
390
358
353
360
367
374
382
401
402
386
383
379
382
343
566
519
384
380
389
395
408
418
444
447
450
425
381
364
362
361
365
375
394
398
381
374
374
376
369
320
659
371
356
360
367
379
390
409
424
432
416
372
343
337
339
339
350
369
378
361
356
356
358
358
262
662
373
350
347
355
365
378
396
414
425
415
372
346
342
344
348
352
362
384
381
370
369
372
374
362
429
629
365
358
364
373
382
395
414
430
435
414
373
354
353
358
359
365
367
372
375
394
391
382
380
384
383
306
661
454
376
371
378
384
394
408
427
437
439
407
369
356
358
364
364
368
372
377
375
395
399
383
386
386
384
311
660
457
376
376
377
389
399
415
434
445
446
419
378
362
361
365
372
374
378
382
391
403
395
391
388
391
389
314
662
394
380
379
387
395
410
426
444
451
444
403
369
360
361
365
366
369
372
387
398
382
374
377
377
372
336
660
371
362
364
371
382
395
414
426
435
420
379
352
349
349
353
359
363
375
392
383
372
376
379
377
282
661
407
364
362
371
377
389
404
423
430
424
387
354
345
348
350
355
361
368
388
381
371
370
374
375
297
659
434
366
363
368
378
388
405
422
432
428
395
359
349
353
357
362
369
374
394
394
380
380
384
382
336
599
501
374
371
374
384
390
409
427
439
440
408
370
357
357
359
363
366
375
394
397
378
376
379
378
349
538
521
374
365
371
381
391
411
428
441
444
416
377
357
354
357
356
364
372
394
397
376
372
371
374
351
494
592
369
362
366
371
385
402
423
439
442
418
372
354
352
355
359
364
385
396
379
372
374
375
377
275
663
389
364
363
370
376
392
413
429
440
426
386
354
350
353
355
363
365
373
390
394
380
374
376
377
343
532
575
365
360
365
374
380
397
415
428
431
402
361
343
343
346
349
354
355
371
385
370
364
366
368
366
324
659
359
351
354
360
372
385
404
419
425
409
366
343
343
344
347
352
356
366
385
381
372
371
375
373
290
660
431
364
360
370
378
388
405
425
435
433
396
364
355
356
359
365
375
393
395
378
380
380
382
325
631
467
375
370
375
391
398
418
438
450
446
412
377
363
363
368
376
394
406
395
380
383
383
383
296
662
402
375
373
379
391
403
420
437
445
436
395
362
355
359
360
369
393
391
372
371
371
374
360
443
631
362
358
361
370
381
395
420
431
433
404
362
342
343
345
352
360
381
384
370
365
370
370
363
379
655
364
357
359
369
375
392
413
425
432
410
368
347
348
351
351
357
365
381
380
367
370
368
372
309
632
464
356
355
363
370
379
401
418
429
427
393
355
345
349
348
352
357
362
379
382
373
370
370
372
365
386
647
369
361
367
373
383
399
417
431
441
422
381
355
349
352
355
364
374
392
389
373
369
373
377
297
662
457
368
362
368
376
387
409
425
436
436
398
361
351
354
353
359
370
385
395
379
376
379
379
372
392
658
369
366
370
379
385
402
421
438
445
420
378
357
355
357
362
367
369
375
396
398
382
380
382
382
316
654
506
372
365
370
378
390
408
426
440
437
406
364
353
355
357
361
365
368
372
376
395
397
381
380
382
382
289
662
428
372
367
372
380
391
407
425
433
431
397
362
351
353
353
358
361
365
368
378
396
390
380
378
377
376
280
662
395
365
365
373
382
391
409
423
437
428
386
354
348
352
351
357
359
363
369
372
394
388
373
376
379
376
292
661
390
370
367
376
384
397
418
435
444
441
399
364
354
355
357
365
369
374
375
392
406
383
377
378
378
361
462
608
368
361
365
369
381
399
416
428
435
416
370
347
344
346
349
353
359
362
381
385
364
365
365
367
317
592
498
361
352
360
370
379
397
420
431
433
403
361
347
348
352
355
360
366
370
388
392
375
377
380
380
335
586
529
370
364
368
379
386
404
425
433
435
406
366
354
353
357
358
362
365
368
371
384
400
383
379
376
376
371
394
654
371
365
364
375
381
395
414
429
436
422
378
353
353
354
361
362
366
368
372
378
390
404
387
381
383
383
355
517
574
375
370
375
385
392
404
424
438
443
424
380
359
354
357
359
363
366
370
373
387
397
384
377
378
375
358
471
581
371
366
370
378
387
401
421
433
439
420
378
354
351
355
358
364
368
370
377
394
391
378
378
379
377
298
660
434
370
369
373
384
393
408
428
437
435
402
366
352
356
360
361
367
368
370
383
401
384
374
378
378
377
319
657
379
364
369
376
384
398
416
426
440
434
388
356
347
348
351
355
361
363
375
392
372
366
366
368
365
346
652
365
357
362
370
380
394
415
430
435
419
378
347
348
349
353
360
363
377
385
378
362
364
363
372
273
662
412
361
352
356
369
386
398
429
438
427
388
362
353
345
365
371
375
397
413
404
389
388
389
389
291
662
431
390
392
400
404
407
427
445
453
448
408
374
359
363
356
357
359
370
393
388
369
369
372
374
295
657
437
355
349
353
362
368
390
408
424
420
386
350
337
341
346
348
357
366
379
366
357
352
355
356
265
662
387
353
358
362
373
386
406
423
434
431
393
359
353
353
357
363
370
389
393
377
369
372
379
352
499
606
373
367
368
375
387
405
428
436
438
416
373
350
352
353
359
366
380
401
393
379
380
383
381
292
663
465
374
374
378
386
396
422
442
454
449
408
370
358
354
357
360
363
378
396
378
366
359
359
358
254
662
387
346
351
354
368
379
402
423
432
425
386
355
347
349
354
357
358
364
382
400
388
379
376
381
380
307
663
373
366
368
378
390
404
420
442
445
433
387
359
357
359
363
368
371
372
382
402
385
376
374
374
371
282
662
358
345
344
352
360
373
391
408
419
405
362
332
327
328
331
335
342
349
368
380
365
354
352
349
346
323
653
351
343
351
359
371
382
401
416
423
409
370
344
343
347
350
357
360
367
385
392
377
376
373
373
353
496
556
367
364
364
373
382
399
419
433
440
416
373
356
349
355
360
361
369
382
400
390
380
377
378
380
292
661
407
369
367
370
384
393
417
434
442
441
407
367
353
353
357
361
365
375
394
390
373
372
372
372
323
595
501
364
354
361
368
378
397
414
427
429
403
363
345
346
350
357
363
370
387
397
379
373
375
374
369
361
660
364
360
362
370
381
394
416
429
435
421
381
357
355
358
360
363
366
370
380
398
387
375
372
374
374
281
663
417
365
362
369
380
390
412
428
438
439
404
366
358
356
363
364
367
370
372
373
381
400
391
380
377
382
378
285
662
395
367
368
373
381
392
412
428
437
435
400
364
349
353
351
361
362
366
367
376
394
394
377
375
373
375
296
661
434
367
359
367
374
388
406
428
439
436
409
369
351
350
354
356
361
363
376
399
386
370
370
369
373
280
662
419
361
356
362
369
382
402
421
434
428
395
358
344
349
350
354
358
363
378
391
378
368
368
370
372
270
662
388
361
358
364
374
383
405
421
432
424
389
353
351
350
352
359
358
359
373
390
377
366
368
371
369
273
663
399
358
357
365
371
384
401
420
428
429
393
360
348
350
353
358
361
362
368
376
396
393
379
377
377
379
303
660
461
367
363
370
379
389
406
427
435
439
410
370
355
355
356
361
361
364
367
381
398
384
375
377
377
376
282
662
387
364
363
369
380
389
409
426
435
429
392
358
350
353
356
357
359
362
369
388
386
371
369
371
370
321
598
498
364
360
365
374
382
401
418
432
433
409
368
351
351
354
357
361
364
367
379
395
382
375
374
375
375
288
662
382
365
366
371
379
390
410
426
435
431
394
361
354
354
355
359
364
366
382
393
379
376
375
374
374
314
660
377
364
369
377
381
398
418
436
444
441
400
368
361
361
365
369
373
385
402
391
377
375
375
373
295
661
412
363
361
367
378
392
407
426
436
430
398
356
338
335
336
341
347
368
376
359
350
347
349
352
269
660
350
334
334
341
352
366
385
404
412
404
363
330
325
325
330
333
347
368
366
349
345
349
352
314
543
498
346
339
347
359
368
386
408
420
425
396
358
341
342
341
345
350
359
382
379
363
360
365
366
325
562
522
357
353
360
366
381
399
420
434
435
409
370
354
356
359
359
366
366
372
391
395
378
373
374
376
346
532
583
368
360
364
375
386
402
420
436
438
416
376
356
352
355
356
361
364
363
368
384
393
376
371
370
372
348
491
588
359
353
355
366
374
390
409
424
428
409
367
344
342
345
348
351
353
356
365
383
383
367
364
364
365
317
596
486
359
356
361
372
380
401
418
432
436
410
369
352
351
353
358
362
363
368
385
398
382
376
374
377
376
321
660
377
367
370
375
384
395
413
429
438
429
388
360
357
359
362
363
367
372
381
396
399
383
380
382
380
337
604
492
379
374
380
388
398
414
434
446
450
426
385
367
362
362
367
369
374
378
388
409
388
380
380
379
377
313
662
379
364
367
371
384
399
419
433
441
433
392
358
346
351
354
357
358
367
390
385
367
366
363
364
318
577
520
356
352
352
364
373
394
409
425
429
402
364
344
344
349
349
354
358
380
387
369
364
361
365
365
298
661
366
353
355
363
374
387
408
425
432
421
384
349
349
349
352
358
360
367
388
385
369
367
366
366
325
551
532
352
347
351
358
368
382
400
412
414
392
353
337
335
338
344
348
350
365
377
363
361
357
356
357
265
662
367
346
347
353
362
376
394
417
427
421
385
352
342
347
350
357
363
385
393
377
374
377
376
379
381
655
380
370
376
383
394
407
427
443
447
434
396
367
362
359
368
371
386
403
395
374
373
372
372
310
650
487
363
357
362
371
384
395
416
427
424
392
351
338
335
340
344
352
376
380
365
356
359
362
360
348
660
354
349
351
359
371
385
408
420
427
409
369
346
344
349
354
359
365
379
390
375
369
370
370
370
330
661
367
359
361
371
381
393
410
428
436
424
382
352
354
353
356
361
363
366
382
388
379
375
377
379
373
371
652
371
365
367
374
381
399
417
435
442
427
386
355
352
353
359
359
365
371
378
385
375
369
368
373
317
610
487
357
351
353
365
372
389
408
418
418
388
347
329
330
331
337
340
350
362
365
353
353
352
353
314
550
530
347
342
347
356
368
385
407
421
426
398
359
347
348
353
356
361
367
384
390
382
376
376
380
376
358
662
372
368
369
377
388
406
426
441
448
433
390
366
365
369
373
375
377
379
393
403
395
387
389
388
385
355
661
384
373
375
381
396
406
428
441
449
440
395
365
361
362
362
369
369
376
391
397
385
383
384
386
371
454
628
374
365
369
378
386
403
424
433
440
423
378
353
347
347
350
355
359
374
381
369
360
360
362
361
263
663
374
346
343
349
358
371
392
411
417
409
372
337
332
332
333
340
345
355
374
377
360
357
358
360
335
497
588
353
349
353
365
377
393
412
425
431
405
365
348
345
349
354
360
362
366
380
391
383
376
379
378
375
311
662
373
363
367
375
381
395
416
432
438
428
390
358
353
358
361
365
366
370
376
395
395
383
383
381
380
322
651
486
375
370
375
383
395
410
434
448
450
423
384
363
362
367
369
372
376
393
402
392
383
383
388
383
349
659
383
374
375
384
394
410
430
445
449
435
395
360
354
353
357
365
367
391
390
379
372
372
374
372
287
662
378
357
356
360
367
385
402
420
427
420
373
343
335
337
339
345
358
378
377
361
359
360
360
351
430
633
357
347
353
361
373
387
408
422
431
409
364
346
343
346
347
352
367
383
384
368
367
370
369
315
613
504
359
354
360
368
381
401
421
435
437
404
365
353
355
357
361
366
370
390
398
383
380
381
381
373
425
653
370
364
368
377
386
400
420
436
443
424
379
355
351
360
358
360
365
372
385
389
375
374
375
373
336
558
523
368
358
363
370
377
392
411
422
425
397
357
339
333
338
336
342
343
360
368
346
341
339
340
310
472
484
324
319
325
332
341
356
377
393
394
369
327
310
312
312
317
331
348
350
336
336
337
340
288
585
435
339
336
343
355
370
385
407
417
417
384
347
338
338
342
353
374
388
379
369
369
368
371
270
662
392
357
355
364
375
387
410
432
439
431
388
358
349
353
356
361
374
390
385
372
374
377
377
278
663
402
360
361
364
372
383
407
423
431
420
382
349
341
350
351
352
357
363
373
384
373
371
370
370
308
637
450
356
355
359
370
380
401
417
432
432
404
366
346
353
350
358
361
372
392
388
370
373
373
368
278
661
385
357
357
364
372
385
406
423
431
424
387
356
344
348
351
356
369
390
385
364
362
364
363
270
662
409
353
353
355
363
379
397
418
425
423
384
348
338
343
346
348
361
383
381
361
361
361
361
286
660
444
349
348
352
363
375
394
417
424
427
390
353
342
346
347
355
360
376
391
376
371
371
372
367
358
659
366
359
361
371
380
394
412
429
435
416
375
353
353
356
362
364
368
375
389
397
378
378
380
375
310
652
472
364
361
366
368
385
401
417
428
431
402
361
349
351
352
356
359
365
375
391
380
369
366
367
366
335
656
371
355
360
372
378
393
415
431
437
424
386
357
351
349
355
359
363
378
395
387
373
368
373
369
277
662
377
352
351
357
366
381
399
417
423
412
376
344
335
339
342
350
352
365
384
372
363
363
366
365
284
662
370
353
355
362
372
386
406
422
428
417
375
347
343
345
349
350
351
357
376
373
358
353
352
351
274
644
417
334
327
332
341
350
362
383
394
393
358
320
307
309
317
322
324
325
331
351
344
331
329
330
333
239
662
355
337
340
346
355
366
387
398
412
404
371
337
337
335
349
347
353
375
393
370
364
361
356
347
396
590
356
353
351
359
371
384
413
426
427
412
373
343
340
347
345
353
379
388
372
365
363
364
356
376
651
358
350
352
364
370
384
404
415
416
395
358
341
342
347
353
363
385
393
372
367
368
369
361
417
661
360
361
365
374
388
402
426
440
442
420
379
362
361
365
367
376
400
398
377
375
377
373
313
646
526
360
357
360
369
383
400
419
425
426
393
353
345
342
345
349
367
383
369
358
358
359
359
256
662
366
343
338
347
358
373
390
409
415
407
366
331
329
334
337
341
357
378
369
362
361
366
366
277
661
382
361
359
373
382
398
416
436
447
436
398
369
363
362
367
376
400
412
397
385
383
384
379
377
660
379
373
376
382
390
401
420
426
427
407
366
347
349
355
360
368
385
400
380
371
366
367
363
373
659
356
347
351
357
367
383
401
413
416
395
350
329
329
331
334
341
356
369
353
344
342
344
335
332
656
328
319
322
328
340
355
373
387
391
370
326
307
312
316
321
325
332
357
354
340
336
341
345
242
663
384
341
340
349
359
373
394
413
423
418
378
348
342
350
352
360
364
375
403
397
387
387
388
388
286
664
407
378
377
386
395
409
428
446
452
441
398
366
362
367
370
373
372
381
398
412
397
390
389
391
352
584
545
380
380
383
398
406
428
448
459
465
435
392
374
367
373
376
381
387
392
413
409
393
390
392
388
309
662
393
375
372
380
388
401
422
436
442
429
388
356
346
350
349
349
366
386
383
362
361
358
357
261
662
395
341
332
336
343
357
374
391
397
386
342
305
294
292
293
296
301
323
327
310
300
301
302
267
482
460
290
284
285
294
307
329
352
368
370
341
300
290
296
302
313
316
329
359
356
344
347
354
355
262
662
414
350
348
355
368
382
405
426
438
432
392
358
353
360
363
369
374
379
396
406
390
384
389
388
356
561
614
378
374
377
388
397
413
436
452
447
419
379
368
365
369
372
380
382
392
413
401
391
393
397
390
338
662
383
378
380
386
398
415
437
456
459
444
399
375
371
371
377
377
382
403
414
399
388
387
388
382
386
659
379
376
377
379
394
409
428
442
441
416
372
344
337
336
340
346
351
373
370
352
344
342
341
274
605
437
323
317
320
331
341
361
378
389
389
355
311
299
303
307
314
322
331
356
355
340
338
345
346
270
662
459
340
336
340
351
364
383
408
422
423
389
353
344
346
349
353
356
361
383
386
378
372
377
378
336
588
572
363
353
359
365
378
394
414
428
428
397
356
339
338
342
342
347
348
352
367
378
362
355
356
359
314
564
526
349
340
346
358
367
383
405
418
420
394
353
338
342
346
349
358
360
366
385
385
370
370
371
374
286
661
406
368
368
374
383
395
412
428
439
434
398
363
355
356
362
367
372
379
399
396
386
384
385
386
311
660
426
377
377
386
394
408
429
443
454
453
417
383
369
369
373
377
385
400
418
407
396
394
393
392
304
662
410
384
384
391
403
416
436
451
456
446
403
370
362
361
362
369
373
393
397
378
370
372
373
335
533
533
357
351
355
363
374
391
409
423
423
394
353
337
335
336
342
344
360
377
366
353
353
356
354
256
661
367
339
337
343
354
365
382
403
409
399
358
323
320
322
329
333
336
341
352
374
364
354
354
358
356
279
661
359
344
347
354
365
381
399
416
425
410
370
342
339
345
346
353
355
356
360
364
367
365
373
390
369
362
362
361
303
600
460
343
333
337
342
353
367
387
399
400
370
331
309
306
308
315
317
321
331
330
331
335
360
358
344
345
348
348
268
660
377
353
352
362
374
389
411
434
441
436
395
362
351
353
358
365
370
375
380
381
391
412
398
391
390
390
388
347
662
385
379
379
388
399
413
434
451
458
437
395
369
366
369
373
377
382
385
388
405
420
399
396
395
391
379
455
650
374
367
367
372
379
391
407
417
416
389
338
316
312
310
309
308
309
315
310
313
332
323
313
307
306
308
225
646
316
296
297
311
319
345
366
388
394
383
344
313
308
317
320
328
339
343
366
385
367
366
364
371
366
340
660
378
368
377
383
398
414
436
454
457
436
389
361
355
355
359
363
367
378
396
390
374
370
371
371
276
662
439
360
359
365
372
384
404
424
435
431
391
357
348
352
357
358
363
368
381
396
386
378
381
386
384
298
663
391
375
377
384
393
409
429
447
457
443
396
367
363
368
370
378
374
381
380
390
405
389
383
384
385
379
408
655
376
376
371
381
389
405
425
439
447
426
385
354
350
351
355
363
381
373
370
396
392
373
371
374
376
290
661
423
368
361
359
365
379
398
418
428
428
389
351
338
341
343
346
352
354
359
372
387
372
367
368
371
372
309
661
370
356
358
364
370
384
399
414
423
404
363
329
321
319
316
319
318
318
319
335
339
322
315
317
315
300
379
539
306
294
298
306
319
336
355
371
378
363
320
301
295
304
307
316
321
327
339
357
370
355
353
354
360
346
467
575
364
362
370
380
393
416
441
459
463
444
401
379
378
379
387
391
398
401
416
435
418
412
409
412
412
328
662
430
405
408
413
424
437
452
464
473
464
421
386
373
370
372
377
381
384
391
411
403
388
383
384
386
310
661
470
376
370
379
385
396
417
438
448
448
414
373
356
356
360
362
367
369
378
395
399
382
375
377
378
350
509
584
370
363
367
375
384
399
418
433
432
412
368
347
342
344
347
348
350
352
356
370
380
362
357
355
359
348
339
647
351
343
344
349
355
370
389
401
407
394
349
320
309
310
312
317
316
318
323
341
345
330
325
329
326
316
390
537
322
314
318
328
336
355
375
395
406
392
352
329
322
328
329
338
344
352
373
384
371
368
364
373
374
339
655
386
372
376
385
398
416
438
451
461
450
410
378
371
372
376
383
389
390
413
411
393
386
384
389
362
525
569
373
364
367
375
384
403
420
435
436
413
367
347
340
343
345
348
348
362
379
367
353
358
356
355
260
662
370
341
340
347
356
368
390
407
418
411
374
340
331
335
337
344
349
350
364
379
366
360
361
367
367
302
661
371
360
361
369
379
394
416
434
443
431
388
362
358
359
364
369
372
375
383
407
397
383
384
387
384
311
660
440
377
371
376
387
396
417
434
443
448
413
371
355
355
359
358
367
371
386
399
384
376
376
377
380
293
661
392
368
371
379
385
403
422
440
448
444
407
370
358
357
361
364
371
384
400
383
370
367
366
366
272
662
409
353
349
354
363
378
395
415
424
420
384
346
335
336
341
347
349
363
386
380
365
362
368
365
312
618
506
360
355
360
371
383
399
419
434
432
409
366
351
351
353
356
364
366
372
393
394
376
377
378
381
338
573
557
374
368
374
383
394
411
431
445
446
424
384
362
361
364
367
370
373
375
377
391
404
389
382
382
384
379
336
661
378
370
368
375
385
399
416
437
443
432
393
367
354
358
360
365
369
373
373
377
394
388
377
369
369
368
286
659
405
348
341
344
351
358
372
390
394
391
358
313
290
286
284
284
288
287
289
303
316
297
286
287
290
287
228
627
298
282
286
298
313
328
353
373
384
377
340
313
312
321
328
338
348
355
369
389
384
377
384
385
389
298
662
428
390
390
400
408
421
439
459
470
463
429
395
387
387
390
395
395
398
410
427
421
407
406
409
409
343
661
515
399
396
402
409
419
439
459
469
471
439
397
383
383
386
389
390
394
412
420
402
393
392
400
392
365
660
394
387
388
393
405
420
439
449
456
443
399
366
359
353
353
355
360
378
377
352
345
340
337
324
373
590
323
305
307
308
319
333
353
366
370
349
306
286
281
283
287
292
310
326
316
308
310
314
317
231
659
375
315
318
327
337
357
378
400
417
414
379
344
337
338
345
351
359
375
394
382
374
376
379
380
281
663
405
371
370
376
389
405
425
442
453
446
407
375
369
372
376
382
385
400
415
405
399
398
402
398
304
664
424
389
389
396
406
417
443
462
468
462
422
392
381
386
388
392
395
411
425
413
403
402
405
405
313
663
433
397
388
395
401
415
434
450
457
453
412
375
359
358
360
363
367
373
386
381
365
366
365
363
275
661
410
348
343
346
356
368
390
408
417
415
378
341
331
329
334
337
343
347
363
370
362
355
353
352
351
281
661
348
334
333
337
345
361
379
396
399
386
341
316
310
314
317
322
323
323
339
355
339
329
330
333
330
276
658
331
318
322
333
343
361
382
399
408
394
354
329
326
334
338
342
346
351
357
363
381
391
376
375
376
380
349
537
590
375
373
381
388
398
419
435
449
457
438
392
376
373
378
381
385
394
394
400
408
415
410
408
402
402
404
340
663
409
395
400
405
413
428
446
464
475
463
423
392
381
387
386
390
393
398
398
410
407
398
390
393
392
310
661
458
377
370
372
378
391
409
423
431
428
389
349
339
334
338
341
344
347
355
372
367
355
354
357
359
290
631
465
348
342
349
355
369
389
409
420
423
389
351
335
337
341
350
351
356
359
358
364
382
384
373
374
376
379
332
596
547
370
359
362
367
378
386
410
422
422
398
358
337
338
333
336
339
343
343
346
351
357
377
357
355
351
352
344
356
632
350
337
342
344
357
369
391
410
409
396
355
325
319
317
327
326
330
332
340
353
365
347
344
342
346
332
427
566
345
338
341
351
362
379
402
417
421
404
364
342
339
347
353
357
361
364
382
398
388
377
382
385
383
304
662
392
375
376
385
391
408
430
450
457
445
403
377
371
371
374
380
383
385
394
414
402
395
394
396
395
299
663
425
390
386
393
401
410
431
448
461
452
410
375
365
368
370
377
374
381
394
409
395
389
384
387
384
308
661
392
372
372
379
387
403
423
436
445
436
395
359
351
351
355
362
360
376
391
382
369
367
367
367
276
661
413
354
350
355
366
377
396
414
421
420
383
345
334
337
339
344
348
359
376
369
358
356
358
362
286
658
441
358
351
358
365
381
397
418
431
424
393
355
343
344
351
353
357
370
386
373
365
365
368
367
266
662
388
352
352
358
367
377
402
418
429
424
384
353
348
350
354
363
362
377
395
381
376
379
378
381
287
661
402
377
376
381
393
410
428
451
462
453
408
377
372
369
372
375
381
408
411
393
395
394
396
380
467
651
386
379
379
385
391
410
431
442
444
422
376
355
349
349
353
353
363
382
378
359
359
364
360
292
636
476
347
342
346
354
364
384
409
422
418
384
346
333
337
339
342
346
351
368
374
363
358
360
360
351
410
638
354
348
350
356
371
386
409
430
431
409
363
344
343
348
351
355
358
362
365
370
389
384
375
375
378
379
280
662
429
369
368
372
377
391
414
432
444
438
404
367
356
359
361
365
368
372
374
377
379
382
400
406
389
386
390
390
310
660
486
377
369
381
383
399
416
439
456
458
427
385
371
366
371
374
373
377
384
385
395
417
402
392
395
392
391
336
662
396
380
384
388
395
418
429
438
454
441
382
361
349
343
341
332
340
347
360
370
352
339
346
345
344
357
626
358
343
348
348
357
371
393
406
415
394
356
329
333
336
346
347
350
366
377
367
362
366
370
369
286
662
367
352
352
358
366
380
403
417
425
412
371
343
338
342
348
354
356
369
381
371
363
363
363
366
274
661
380
354
357
365
374
390
413
434
448
431
392
363
357
356
363
368
374
398
404
387
389
386
389
371
531
611
394
379
386
392
409
423
450
461
465
440
402
381
378
383
387
394
411
416
397
387
385
383
380
345
663
374
367
358
367
374
380
397
409
413
388
339
312
308
306
305
312
331
336
318
310
312
314
310
246
650
302
285
289
295
302
321
341
356
364
348
307
287
287
297
299
307
316
335
336
329
331
335
339
304
520
510
344
339
347
353
369
389
407
422
424
393
358
345
351
356
363
367
370
384
393
391
384
386
389
388
292
663
412
381
376
383
391
407
421
443
453
445
406
375
372
375
377
384
391
396
397
403
412
414
405
407
407
407
317
662
473
393
391
392
401
412
424
441
450
452
421
379
367
372
374
379
380
394
410
406
391
396
401
392
306
662
420
376
373
373
378
389
408
422
430
419
380
343
333
333
327
333
339
354
361
342
334
333
332
330
286
639
332
309
312
316
326
340
357
373
379
360
322
295
298
303
304
307
325
347
346
334
331
337
340
303
537
493
335
332
339
350
366
383
406
420
427
399
362
350
353
362
365
373
374
383
391
409
396
391
391
395
390
421
660
391
387
389
399
411
422
441
454
462
445
403
383
382
387
391
396
397
401
410
426
425
411
409
413
409
318
663
465
395
390
394
405
416
434
449
459
458
420
385
373
378
379
384
383
391
404
426
408
397
392
391
389
300
662
394
373
370
377
384
398
425
438
446
434
393
361
350
354
353
357
360
370
390
385
367
364
363
366
301
647
484
358
352
358
370
380
401
420
433
434
401
361
348
350
350
354
362
375
391
385
369
373
374
373
292
661
470
364
358
363
371
382
404
421
433
428
392
352
341
344
348
350
353
367
386
383
370
364
366
366
326
560
568
358
355
358
368
376
399
416
431
430
403
363
347
344
348
350
355
356
360
367
391
382
372
374
371
375
277
662
440
362
358
363
374
383
403
421
433
430
393
361
348
352
353
356
362
364
369
368
372
380
389
379
372
376
374
353
484
626
364
360
359
368
377
395
412
425
429
408
368
348
343
345
349
350
358
360
359
364
370
386
388
373
370
372
370
302
650
479
360
353
362
370
378
403
420
433
438
409
368
351
350
350
350
355
359
362
366
373
384
403
385
381
378
379
375
322
661
382
373
370
384
391
403
420
430
437
428
386
360
355
360
364
371
376
381
382
381
399
395
378
373
376
379
335
589
543
380
376
379
386
391
409
424
440
442
414
377
362
363
366
369
368
373
378
385
404
395
384
386
388
389
302
663
451
383
384
386
400
409
426
444
455
452
414
378
365
371
368
369
373
376
377
386
403
389
384
381
383
384
289
662
423
370
369
372
377
389
408
429
437
439
401
369
359
361
366
365
370
373
372
389
405
399
390
387
396
391
303
661
413
383
384
390
397
411
432
450
463
460
423
380
371
373
374
380
382
388
406
419
402
389
389
395
388
297
662
397
374
372
378
385
398
419
433
438
427
385
353
343
343
342
344
345
360
373
364
352
354
353
353
263
661
404
340
337
342
349
365
382
400
414
406
367
331
321
320
321
323
323
324
343
343
329
321
320
317
302
360
560
298
286
287
296
301
313
331
340
346
319
271
246
246
247
250
254
257
257
266
286
290
276
277
281
285
259
437
450
296
293
300
315
331
347
373
393
403
386
348
334
336
346
353
359
366
373
384
401
423
410
407
413
416
417
357
663
427
419
418
424
434
452
470
487
501
490
448
420
409
409
412
417
420
421
427
443
449
436
425
426
420
418
412
662
406
399
395
400
405
420
436
446
450
434
388
354
348
348
346
346
355
355
371
375
351
351
348
345
339
358
637
338
331
333
341
352
367
391
400
408
389
345
319
320
325
329
335
341
347
353
373
368
356
356
360
359
301
635
476
357
350
355
366
377
394
418
431
431
405
364
352
351
356
360
365
368
371
376
378
382
401
401
387
384
388
386
324
647
510
378
373
378
388
398
414
432
443
448
423
385
362
364
366
365
371
374
378
380
385
387
391
412
399
391
387
391
388
305
662
397
381
380
387
396
407
424
442
450
446
413
376
365
367
369
373
379
380
381
387
386
391
407
404
391
388
394
390
305
662
435
379
378
380
391
400
416
434
446
444
414
378
362
365
365
373
376
378
380
385
393
411
409
395
394
399
397
339
654
489
390
390
395
398
413
433
454
466
465
442
399
379
375
378
377
382
389
393
404
416
404
391
389
391
391
304
661
425
373
369
373
373
388
405
422
429
420
388
339
323
322
315
316
320
320
331
342
329
314
310
309
306
207
653
327
284
280
283
288
297
316
332
343
337
299
266
252
255
258
263
270
276
294
305
291
291
296
296
300
260
635
312
300
305
316
329
347
368
389
399
388
350
326
324
331
337
341
347
352
370
387
376
369
375
378
383
320
662
394
379
387
396
407
420
446
461
473
458
418
396
386
392
395
404
409
412
434
436
423
415
420
419
410
470
660
410
408
404
412
421
437
456
468
471
454
409
381
373
373
376
378
383
400
410
382
376
372
376
374
297
662
378
358
358
361
375
388
405
424
427
418
375
346
336
339
339
344
345
364
377
364
355
355
356
357
287
657
450
351
346
352
357
370
388
412
422
422
388
351
337
337
340
343
347
349
350
364
379
367
353
355
352
349
250
661
360
333
332
335
343
352
369
384
392
384
347
314
305
308
313
315
317
321
324
332
353
358
342
341
343
345
331
425
596
345
347
350
360
368
383
403
410
426
410
371
351
348
349
352
359
367
375
382
397
420
410
399
398
399
402
310
663
414
392
383
397
402
409
424
438
446
442
405
373
362
365
372
374
379
387
390
417
423
404
399
397
397
388
363
661
379
371
378
382
390
404
420
426
427
414
366
331
322
321
322
328
329
335
343
363
353
344
338
346
344
250
660
357
332
336
337
348
359
375
395
404
395
366
338
332
336
338
344
352
355
380
384
365
356
357
362
347
458
530
362
353
363
372
390
384
403
419
431
415
374
355
355
359
364
372
386
393
401
386
381
388
396
367
523
566
392
382
392
396
408
434
421
444
449
434
398
377
371
374
378
383
412
412
389
385
385
385
386
306
662
397
379
379
382
397
410
426
445
447
439
403
362
357
353
362
368
391
393
376
370
365
374
365
281
662
374
350
350
359
368
383
402
420
423
410
369
337
335
338
341
354
375
370
356
347
348
350
340
351
654
343
334
339
348
360
375
393
403
410
389
349
332
335
332
338
344
350
362
370
362
359
360
364
363
295
662
364
355
354
361
375
390
410
429
434
422
380
356
352
355
360
363
367
370
371
376
383
402
391
385
387
387
380
389
660
378
368
371
381
393
403
427
439
446
430
389
358
355
355
357
360
363
364
371
366
375
391
386
383
376
375
376
309
644
474
372
363
367
378
388
406
426
435
439
411
362
344
341
348
347
352
352
353
361
384
374
359
357
359
357
261
661
390
341
340
342
352
366
385
402
413
408
369
334
327
325
328
333
337
342
350
371
370
356
354
356
361
284
658
454
348
346
352
363
378
400
420
432
434
397
364
353
356
360
366
369
376
381
395
409
396
393
393
394
394
356
663
387
382
384
390
401
414
430
446
455
437
394
365
361
365
368
370
376
377
380
385
404
397
383
384
380
379
278
662
391
368
365
386
382
408
411
427
431
451
389
356
351
358
358
364
374
375
385
392
406
403
401
398
389
392
300
662
478
385
379
388
400
412
425
460
452
442
417
367
361
360
365
373
376
379
385
403
397
380
380
378
377
311
628
477
361
353
351
360
368
379
413
402
423
364
328
306
300
295
291
293
291
308
321
296
288
286
282
282
188
645
286
255
259
263
272
289
311
329
343
329
291
259
261
263
269
276
281
305
317
311
306
311
318
322
237
661
341
320
320
334
350
365
391
413
427
414
374
349
348
353
360
369
373
386
409
404
396
395
400
400
323
662
525
393
389
392
404
422
439
462
474
472
436
397
386
388
382
400
398
396
402
415
402
398
400
404
400
313
663
405
383
382
391
400
411
437
452
465
458
416
385
383
382
385
394
394
402
417
413
404
404
408
406
332
661
494
399
401
403
409
423
447
461
473
467
432
395
387
380
382
386
391
408
417
406
391
392
393
396
298
662
429
379
362
361
362
379
391
405
410
405
368
328
318
309
320
332
352
356
344
330
322
336
330
235
662
352
330
330
334
343
372
393
409
414
402
369
346
342
348
353
357
371
369
345
334
329
331
328
317
661
341
342
342
346
354
366
383
381
378
348
309
293
296
300
306
312
340
354
354
347
349
350
355
240
663
358
328
331
335
351
371
395
415
424
412
376
350
347
348
351
355
363
383
381
371
372
368
370
359
456
657
366
360
364
371
382
399
419
428
435
410
371
354
354
357
364
368
374
380
393
402
397
392
397
397
393
357
664
388
383
381
389
400
415
435
446
451
440
394
368
365
368
369
373
375
377
376
385
408
400
384
384
384
381
273
663
424
366
366
372
378
391
410
425
434
430
392
357
348
351
356
356
358
366
366
369
370
394
395
380
377
375
376
301
660
489
365
360
368
377
388
403
422
437
434
405
368
353
355
358
362
364
365
370
367
378
397
388
377
376
379
378
278
662
410
365
364
373
381
394
409
427
435
430
389
355
346
349
352
357
359
361
366
381
387
373
367
365
365
356
376
644
356
349
352
360
372
383
404
419
424
405
362
340
337
341
343
350
351
353
360
382
377
366
364
366
365
274
662
412
363
358
361
371
385
401
421
432
427
390
358
349
353
353
358
361
369
386
388
378
379
376
380
338
548
542
369
366
372
380
392
412
431
441
443
413
371
359
359
365
366
369
379
396
390
380
378
379
377
316
616
474
361
356
363
370
378
393
413
425
423
389
347
332
334
336
336
344
353
370
368
346
348
345
349
295
576
446
339
334
334
345
359
374
397
404
406
376
335
319
318
321
326
334
359
367
352
347
349
346
348
256
662
361
337
345
353
364
381
402
421
428
420
376
350
351
356
361
366
379
398
403
392
384
386
389
380
408
658
377
371
374
385
396
412
435
447
455
431
388
369
370
375
377
383
385
397
406
393
385
387
389
388
377
662
380
373
374
383
391
406
423
437
443
424
382
360
361
367
365
371
378
390
398
384
387
385
382
384
368
659
385
373
373
384
396
411
434
444
450
432
391
361
359
365
369
366
372
383
397
392
377
374
374
373
281
661
416
357
357
359
369
384
399
413
415
410
370
332
326
320
324
333
335
350
365
351
343
345
343
346
245
662
373
340
341
344
354
367
390
404
418
409
363
338
333
328
334
335
341
356
373
363
354
358
364
360
275
662
366
349
354
362
370
386
405
423
427
418
379
351
349
357
359
364
371
374
395
387
379
380
380
378
290
661
435
372
370
377
381
392
407
425
435
428
392
357
348
352
357
359
360
365
369
382
390
375
374
373
372
312
610
476
355
348
357
360
369
383
401
409
406
376
336
318
314
317
316
317
321
325
346
336
328
330
331
330
235
654
359
318
316
322
332
345
360
380
379
375
348
314
299
308
306
315
324
322
343
371
354
310
340
341
346
420
595
342
329
320
333
340
373
406
422
437
419
383
358
358
347
348
359
363
376
385
365
362
369
369
316
560
497
364
348
359
370
379
398
420
426
435
415
381
364
372
371
375
374
389
399
415
396
393
387
382
383
320
660
387
376
376
389
394
409
430
441
451
429
400
372
367
367
367
373
376
391
404
418
410
398
404
403
388
436
656
382
376
377
382
397
411
432
449
460
436
395
374
370
367
370
375
378
392
411
411
404
405
404
407
339
661
485
401
400
408
415
429
445
463
472
469
436
396
382
381
383
391
392
405
423
411
403
392
395
399
332
657
506
382
369
372
378
383
405
421
434
435
412
372
365
363
360
365
370
369
402
405
393
391
400
391
373
519
630
361
361
364
373
384
397
418
427
427
395
352
332
322
321
339
341
342
354
370
360
356
364
368
365
287
661
357
339
335
343
354
369
391
411
426
412
376
344
335
334
337
340
340
348
371
379
367
366
370
369
361
426
602
370
362
367
373
385
401
422
437
440
426
381
367
364
367
367
369
380
391
409
391
386
389
392
392
352
660
393
383
387
393
408
423
442
460
465
451
410
386
376
380
385
389
404
421
414
395
392
392
393
346
608
511
384
377
383
388
403
416
432
438
440
406
365
349
347
344
353
354
369
386
378
359
363
363
361
282
661
418
358
350
358
367
376
394
416
422
418
386
349
340
343
346
351
358
370
386
375
367
366
368
368
297
642
453
356
352
358
362
373
387
403
412
409
371
337
324
323
323
326
327
331
343
351
335
331
327
330
323
315
618
324
314
319
320
332
344
359
374
382
361
322
298
294
299
302
308
310
316
332
337
324
323
324
325
286
496
449
319
314
322
330
339
353
369
381
383
359
314
304
306
308
315
317
319
323
339
350
342
338
336
338
337
267
657
344
329
330
336
349
357
378
394
407
395
360
338
333
335
339
345
351
353
357
362
380
390
374
378
381
379
349
551
531
377
375
382
392
402
422
441
455
457
436
392
374
374
379
379
384
388
393
396
413
414
399
400
402
400
353
608
533
390
388
391
400
408
423
443
449
451
427
385
370
372
372
377
380
383
387
392
397
417
405
392
395
397
393
313
662
400
384
385
391
396
409
427
439
447
442
406
374
366
369
372
373
378
379
383
397
408
392
386
387
384
382
366
654
377
368
368
370
382
391
408
419
432
412
369
338
335
329
329
333
337
333
336
355
346
328
332
325
328
249
615
362
310
310
313
323
333
352
370
377
378
351
312
298
301
298
306
310
317
342
348
330
323
326
325
324
295
635
329
319
316
332
341
360
379
398
403
393
352
327
328
331
332
342
353
372
383
368
366
369
373
373
329
662
374
369
370
383
395
411
431
447
454
440
400
381
378
384
390
394
398
412
425
406
403
405
409
407
358
663
404
395
396
404
415
421
446
448
459
445
405
370
377
372
370
373
370
375
388
397
377
368
370
369
349
445
557
354
338
343
347
360
370
390
400
403
376
335
309
307
306
311
313
315
328
349
334
324
327
326
331
239
660
357
322
328
329
347
363
379
402
405
400
364
329
320
325
332
338
348
367
382
369
363
364
361
369
277
663
378
364
360
372
381
399
421
436
443
434
380
353
349
352
357
368
369
382
406
400
383
384
389
392
324
662
562
387
387
398
406
421
430
446
463
452
421
386
375
377
380
380
384
387
391
398
413
420
404
398
400
401
343
632
577
383
378
381
390
400
422
434
444
447
422
380
365
370
371
375
377
382
385
381
395
414
395
390
392
391
391
353
662
384
374
374
382
388
399
414
434
435
420
376
346
342
341
339
341
342
342
343
347
362
354
338
336
338
331
237
659
361
313
310
313
324
333
348
365
373
371
336
298
287
292
294
298
299
309
309
317
327
351
339
335
336
338
341
260
659
365
343
351
357
371
388
406
432
440
430
401
371
359
367
369
375
376
386
395
395
403
428
421
403
404
404
404
318
663
423
397
400
399
409
425
438
457
461
452
407
374
361
360
361
365
364
368
374
393
392
371
369
371
372
332
560
541
363
355
362
371
390
393
419
435
436
404
365
353
351
356
361
365
373
372
395
403
394
390
387
390
391
302
663
414
383
386
391
402
415
436
455
467
453
416
382
370
370
367
374
375
373
384
400
397
382
372
373
372
311
645
495
360
354
360
366
378
403
421
430
432
397
352
342
338
344
353
356
346
365
387
382
368
367
368
364
300
637
468
348
344
352
362
375
399
421
429
427
391
349
333
334
338
338
344
348
355
370
368
351
343
343
336
286
578
435
325
311
319
330
330
352
373
385
386
347
305
291
291
289
294
297
304
309
314
332
339
323
326
327
335
324
391
590
337
327
331
341
355
373
399
409
420
402
356
329
329
332
339
342
346
353
363
384
387
372
370
374
374
355
495
636
373
372
382
387
397
417
441
452
460
432
395
371
374
378
380
388
379
386
401
421
412
403
400
405
405
315
663
400
381
382
391
405
418
433
457
464
443
400
370
358
361
359
357
358
360
363
374
372
355
340
340
330
313
359
548
300
287
287
291
297
308
321
339
338
313
267
237
230
236
233
239
237
240
251
276
265
256
252
261
261
174
601
296
260
262
272
290
309
335
353
371
367
330
301
291
300
300
306
320
326
337
359
374
369
366
368
370
374
349
661
380
374
379
390
404
423
446
465
475
457
418
396
392
399
404
408
413
418
437
453
440
430
431
433
432
343
664
448
418
421
423
439
450
467
484
492
482
439
406
405
406
404
412
410
413
414
420
433
434
419
416
417
414
341
662
515
396
394
399
411
421
432
455
464
464
432
390
376
378
376
381
382
387
390
398
410
414
394
394
391
392
327
660
480
385
380
384
391
401
418
438
450
446
416
372
355
354
353
355
357
360
364
379
383
368
361
364
360
341
464
588
352
344
348
356
366
380
401
416
423
396
357
339
335
342
348
347
351
358
373
378
364
362
362
363
353
409
626
356
351
355
362
375
391
408
425
430
411
373
350
346
351
357
360
360
371
389
397
377
377
375
377
370
379
641
369
356
356
365
367
378
395
403
409
385
337
307
297
293
288
290
287
283
296
305
284
270
268
264
262
172
601
270
247
242
248
263
276
292
314
322
313
277
248
241
248
257
261
270
285
305
307
295
302
302
316
297
444
534
333
328
338
355
367
388
416
436
444
424
391
371
373
378
383
390
403
424
430
414
407
404
407
406
358
663
401
396
402
407
423
441
461
483
489
474
436
418
416
415
420
426
428
439
452
433
424
422
421
417
314
663
433
391
385
385
391
403
420
431
435
426
386
353
348
349
352
348
348
351
358
376
357
354
350
353
350
260
662
348
330
334
338
347
362
379
396
406
396
357
333
323
328
336
342
344
352
355
372
385
373
366
370
368
360
437
610
374
366
377
383
392
410
433
448
444
429
383
367
363
350
351
353
349
363
371
372
360
363
368
377
333
615
486
391
382
388
397
412
429
448
460
456
426
394
374
376
379
377
385
389
393
410
388
384
377
374
375
285
660
374
352
349
351
359
366
384
399
403
393
354
321
312
313
316
318
322
333
350
341
330
330
336
333
259
632
376
324
322
337
345
355
375
393
408
405
370
340
332
338
340
342
347
358
376
380
369
368
370
369
350
501
533
372
366
369
384
397
410
435
449
450
429
393
375
371
380
384
387
395
415
425
406
405
406
406
400
431
656
402
397
405
413
421
435
454
469
476
453
416
391
386
382
385
388
396
411
407
386
383
382
378
302
661
446
366
358
366
375
389
406
426
435
428
392
361
351
357
355
351
370
389
394
371
367
369
371
367
390
661
366
357
363
372
387
399
419
434
439
409
374
354
357
360
363
365
374
403
388
375
377
376
375
302
661
437
365
359
367
372
382
400
419
431
423
390
353
346
344
347
353
353
358
371
382
373
368
371
379
378
350
660
364
361
362
375
374
394
414
430
431
412
370
343
334
337
335
338
341
340
353
357
346
341
336
347
332
305
607
332
312
313
320
331
344
368
379
386
364
325
293
286
286
290
294
293
305
319
321
310
305
317
318
255
587
383
318
312
324
335
344
370
390
404
410
370
336
333
327
332
341
349
353
364
389
379
370
375
380
380
291
661
396
378
381
386
396
414
432
450
458
452
414
386
384
383
381
387
395
392
398
413
428
414
402
405
404
399
425
658
398
392
398
401
412
423
446
456
465
446
405
383
379
382
386
386
392
390
399
416
416
400
399
399
398
332
660
469
388
385
393
403
413
427
447
462
457
425
388
372
377
377
381
385
387
397
412
418
398
392
398
398
344
635
502
394
386
388
398
409
429
443
456
455
421
383
364
363
365
371
371
377
377
404
398
372
373
375
378
290
661
408
361
363
373
373
386
409
421
430
425
386
352
344
343
348
352
358
364
381
385
373
364
367
369
356
425
614
357
351
358
363
376
391
412
429
434
413
374
357
352
355
358
364
368
375
393
395
381
378
381
381
343
553
555
371
367
371
380
392
409
426
439
441
415
375
360
362
364
367
373
375
378
382
397
404
397
391
387
388
385
406
651
385
378
384
390
399
408
435
444
450
433
388
352
340
337
318
353
354
355
388
400
382
367
374
378
378
335
660
373
364
367
371
382
389
414
426
425
416
370
357
354
360
361
360
365
379
387
378
364
364
371
382
293
662
375
365
366
368
378
390
410
425
435
426
383
354
353
359
359
361
367
372
391
395
376
370
374
368
346
490
533
360
356
365
374
382
406
422
429
434
407
361
333
330
330
333
338
343
370
362
344
341
337
343
277
616
388
325
328
333
341
352
373
386
400
405
370
336
323
325
327
333
346
367
362
346
336
347
347
292
593
443
349
336
352
359
372
392
413
417
417
385
354
346
347
357
363
381
397
381
370
368
368
369
269
663
393
350
348
353
361
368
383
395
400
392
351
316
309
308
306
307
328
334
311
304
295
298
293
236
638
280
265
263
267
279
292
315
323
330
312
276
246
249
245
248
265
283
279
265
269
277
279
208
605
317
279
280
301
310
329
355
378
391
392
361
335
331
337
345
365
385
386
375
377
387
386
323
661
475
390
387
395
406
418
438
451
456
455
422
387
382
380
390
406
415
408
398
397
401
401
317
662
450
393
392
393
405
418
435
453
459
450
414
383
383
384
388
398
413
414
405
409
408
408
360
632
553
392
385
400
403
418
433
456
465
462
431
399
387
384
390
392
404
413
414
405
403
403
402
314
662
429
396
390
395
399
412
428
444
449
435
396
376
373
373
372
382
380
388
397
402
389
388
390
389
342
609
536
374
367
373
382
388
406
424
436
435
401
365
353
354
355
360
364
367
374
381
388
380
383
383
378
296
662
407
371
368
375
382
393
414
430
440
437
398
367
358
362
369
370
374
382
393
387
400
394
391
396
400
308
661
409
386
377
386
398
419
428
442
444
434
390
363
356
356
356
362
365
371
372
376
379
375
372
373
376
283
662
382
361
359
370
377
387
408
424
432
417
380
348
346
348
353
352
359
369
380
386
375
374
380
381
323
608
492
373
362
370
379
387
410
428
439
438
403
371
358
356
362
363
370
371
378
391
390
382
385
388
385
291
662
397
364
363
369
373
389
407
421
423
411
372
334
324
322
325
322
323
326
339
335
312
304
298
288
240
498
386
258
249
245
250
253
268
280
291
287
247
208
202
207
211
212
227
247
268
255
251
254
264
263
222
624
282
274
287
294
316
336
357
378
387
372
331
320
326
332
340
354
364
383
396
390
382
386
392
393
343
662
401
397
401
411
424
442
464
486
491
478
439
414
413
413
419
421
426
430
450
457
443
435
437
442
424
509
661
423
417
420
423
431
445
464
470
476
444
400
382
382
376
375
381
390
406
403
387
380
384
387
329
635
508
373
366
371
379
393
412
431
441
436
402
367
358
364
360
369
375
374
383
402
399
382
384
389
388
292
662
405
378
377
385
395
408
431
444
459
441
408
379
377
379
375
381
386
393
410
412
399
395
393
395
349
606
535
385
379
379
387
396
411
429
441
439
399
360
347
343
346
348
347
346
347
351
361
351
340
338
336
331
234
660
330
305
302
302
310
319
334
351
356
339
302
271
265
267
267
268
273
276
279
292
300
293
290
295
299
288
380
510
303
305
307
318
325
347
374
393
404
386
339
336
339
346
356
359
372
365
382
395
387
376
386
392
389
398
658
399
394
393
396
406
419
