354
360
358
373
376
408
413
417
391
349
312
300
301
299
309
309
298
286
286
285
282
272
574
279
262
261
273
287
308
332
350
358
349
315
281
268
278
285
299
312
293
295
294
301
296
390
599
316
306
316
328
341
362
390
405
415
409
362
342
335
347
350
367
365
356
352
359
356
342
475
654
358
358
362
360
373
397
418
439
441
424
382
363
352
357
353
368
365
350
338
346
347
334
413
640
340
328
330
339
354
372
395
418
412
412
375
345
335
331
344
333
360
331
323
314
322
301
428
547
312
304
311
324
332
347
371
413
382
341
322
285
304
313
307
332
331
323
325
309
306
250
600
468
340
296
313
336
352
366
388
404
380
384
344
335
316
315
382
351
333
334
327
304
343
349
661
344
328
341
345
347
370
383
404
401
396
346
327
319
337
340
366
353
336
335
343
340
198
664
383
324
313
328
343
361
390
396
396
389
346
343
329
315
322
363
359
353
347
346
328
262
660
549
327
331
319
329
350
352
376
391
380
365
306
298
297
269
293
284
283
258
272
258
254
255
587
246
214
225
224
241
253
284
300
298
301
250
242
245
242
249
250
260
252
250
254
275
280
315
604
297
287
289
312
324
349
369
392
409
393
357
345
347
350
355
365
384
377
377
385
390
388
292
664
413
390
390
396
419
430
454
469
488
465
432
409
400
406
394
427
427
405
411
423
413
380
597
657
395
400
395
403
408
438
446
471
478
438
402
384
382
378
379
373
395
388
383
372
372
372
263
664
403
353
351
355
366
369
399
416
423
423
387
354
341
334
348
337
340
338
359
353
336
347
329
337
246
661
354
311
310
331
332
352
369
397
410
394
365
334
314
316
320
315
320
328
321
337
330
328
328
346
329
230
662
353
330
311
328
323
347
378
394
412
400
375
342
317
324
323
321
319
317
333
343
331
317
320
323
318
307
623
307
295
289
305
303
319
347
359
375
357
332
283
279
282
282
276
266
279
289
293
290
289
283
295
275
305
562
288
262
277
286
294
330
344
357
381
362
334
308
304
302
310
306
313
311
329
344
348
334
333
355
337
244
662
383
330
341
344
351
367
394
415
422
427
405
368
350
349
343
350
351
360
358
369
375
370
367
368
382
307
610
503
359
347
346
357
369
384
413
435
425
406
368
341
332
333
331
331
331
341
358
347
342
330
336
332
300
631
336
315
321
323
336
357
384
398
401
397
363
328
316
310
322
322
323
340
343
332
325
335
331
292
523
549
326
320
326
329
346
362
390
412
412
396
356
331
329
332
335
330
338
350
361
347
345
348
349
318
492
600
335
329
331
338
349
367
390
409
411
399
357
329
322
325
320
322
322
325
345
330
321
327
324
322
244
661
325
299
303
310
320
330
351
373
385
377
351
313
297
290
295
284
289
293
298
314
302
295
296
296
286
350
545
291
272
275
285
293
311
332
349
357
354
321
285
271
272
276
275
289
304
315
299
301
307
309
262
525
427
307
295
310
319
334
354
382
404
401
383
344
312
309
315
315
325
351
352
345
335
342
344
326
429
621
345
338
338
346
361
378
400
415
422
409
370
335
338
335
342
343
365
366
352
343
354
400
310
433
640
343
329
350
366
375
398
423
439
438
426
389
356
353
348
340
338
341
369
352
346
340
337
340
231
663
334
310
299
314
326
348
377
399
405
397
350
307
292
286
292
302
316
345
344
332
323
323
308
279
496
544
315
312
321
327
340
362
379
400
408
391
355
327
321
326
322
323
324
341
351
342
334
341
345
323
445
614
332
330
331
336
353
364
389
415
420
407
368
337
333
326
330
333
334
346
363
359
352
354
357
355
275
663
354
333
325
334
344
361
381
401
411
405
369
331
313
312
315
312
314
312
331
328
318
315
313
312
246
599
434
303
297
304
309
326
344
372
384
389
376
332
319
314
317
314
317
315
332
340
332
330
336
332
340
277
661
343
328
340
339
352
368
399
413
435
426
390
350
334
342
329
335
339
354
370
363
353
354
357
356
321
660
355
342
340
345
357
381
400
420
427
417
378
347
328
331
328
335
347
362
349
339
339
345
353
241
664
390
333
314
323
326
346
375
403
415
418
381
346
332
332
333
340
348
365
361
342
339
341
347
248
664
486
333
324
326
334
349
371
392
406
412
386
341
326
324
322
324
324
323
334
323
319
318
322
324
220
663
322
306
299
303
320
333
364
384
398
397
362
326
313
316
311
309
316
328
341
327
322
319
327
326
221
663
328
305
309
318
319
334
356
380
380
383
357
311
294
293
297
292
298
315
308
293
298
302
307
211
659
361
292
290
290
302
317
335
360
371
383
353
317
298
294
289
293
296
320
305
300
299
300
305
204
657
345
299
303
304
319
335
360
386
394
390
378
333
319
306
315
311
341
339
323
320
325
325
293
527
469
327
320
322
336
346
375
386
404
413
398
364
328
327
325
340
354
356
338
340
336
348
278
629
490
340
338
339
351
364
383
408
420
428
409
365
351
344
348
359
375
367
358
349
352
355
264
663
428
341
346
339
349
368
379
411
420
419
394
355
330
333
334
332
350
345
322
326
327
332
266
615
453
319
313
323
329
336
357
379
396
399
382
341
322
324
319
320
325
335
336
329
324
330
332
295
501
525
322
315
316
324
327
345
367
387
396
379
338
307
300
305
294
295
295
309
318
302
305
315
308
286
470
455
306
292
296
304
317
345
367
388
402
387
340
314
311
308
321
324
336
345
327
331
341
344
296
568
494
341
332
350
357
373
395
417
428
434
417
370
337
340
343
344
359
372
364
348
361
362
354
363
662
355
342
346
351
360
380
404
418
429
408
362
333
325
324
322
325
344
340
323
328
329
325
246
641
451
321
306
311
316
334
355
374
385
397
374
325
314
310
317
313
312
327
326
310
317
318
312
274
514
464
307
297
295
304
318
339
367
380
384
366
322
290
291
289
297
300
314
333
335
329
340
341
331
299
643
323
300
301
308
333
336
361
375
373
369
337
296
293
290
305
313
329
331
322
320
324
326
290
532
549
325
314
317
330
343
361
392
413
417
402
362
338
333
337
335
344
364
355
348
342
348
347
239
663
377
326
331
330
337
348
366
393
406
394
366
323
307
304
305
306
319
331
322
317
319
320
320
306
621
317
304
305
314
322
338
358
373
381
368
326
296
284
280
284
300
303
307
299
298
307
307
209
660
362
302
300
303
313
327
347
371
374
375
346
312
296
295
299
316
332
338
319
315
321
332
229
662
414
329
320
326
337
348
366
391
410
410
380
345
330
328
329
330
353
347
337
337
339
339
270
634
488
322
318
317
327
342
364
383
390
392
365
326
308
306
296
295
297
311
293
289
289
292
283
173
658
285
252
244
259
263
281
305
329
339
336
293
255
241
247
245
251
261
272
287
289
290
284
295
229
548
405
285
290
301
310
327
358
387
400
411
400
362
345
343
360
369
378
393
413
401
401
404
411
414
433
665
423
419
415
434
439
453
474
496
490
470
426
389
388
381
381
390
410
407
386
389
391
390
368
522
658
366
363
367
378
388
406
428
441
446
426
385
357
363
357
357
364
368
384
371
357
355
352
352
262
663
352
334
329
336
347
356
376
409
411
408
380
347
333
324
311
300
294
306
299
292
309
313
315
236
661
371
313
308
306
306
323
340
359
374
381
352
312
300
305
295
302
308
316
315
298
313
315
310
209
660
336
291
278
284
288
297
321
338
353
350
332
282
273
273
272
281
298
292
287
285
283
284
198
635
344
287
283
294
306
323
343
373
376
382
366
326
318
320
323
342
357
359
360
368
361
326
259
663
473
383
393
385
403
430
438
469
470
468
430
390
378
374
372
391
404
382
374
369
368
370
297
664
374
352
349
352
361
368
395
409
416
407
359
328
303
303
312
334
349
334
342
337
343
340
377
659
336
326
333
346
357
380
411
422
426
414
371
342
338
333
337
344
359
344
343
338
339
336
273
662
327
311
311
320
332
347
371
387
394
391
358
318
309
309
308
323
338
331
317
313
320
322
225
661
418
316
306
316
330
343
359
383
395
398
373
333
322
324
322
324
329
342
337
317
323
322
323
211
662
355
305
300
302
308
321
341
354
367
370
340
294
282
277
278
283
293
308
294
291
295
289
294
194
652
308
283
277
294
303
319
340
357
374
363
337
304
292
300
296
311
320
333
318
316
321
333
313
453
579
340
330
335
352
356
379
401
422
428
417
385
357
361
363
365
378
399
390
372
381
381
378
273
663
439
367
361
367
374
385
397
422
424
431
401
371
356
355
358
359
363
372
362
346
344
347
348
247
662
375
348
340
340
352
360
376
400
410
412
377
344
323
327
331
330
332
346
344
326
322
331
330
248
654
404
322
323
324
334
341
364
383
393
393
374
336
317
315
323
329
352
360
342
338
337
336
344
260
662
346
335
337
345
363
384
402
421
429
432
394
360
356
356
362
361
383
391
374
365
375
375
354
519
652
374
366
363
366
372
385
409
430
438
429
387
366
362
356
352
354
349
365
352
344
351
361
354
338
660
349
333
332
333
344
352
373
389
405
404
370
339
329
324
324
320
315
325
334
322
323
322
328
312
410
566
326
309
312
311
322
340
367
391
396
393
351
320
301
301
304
300
314
324
320
320
323
322
331
227
660
338
307
305
318
327
353
369
396
406
402
374
340
323
324
329
335
361
365
357
344
351
351
346
340
662
356
336
343
352
366
381
405
421
424
417
379
340
337
336
332
347
364
356
343
343
343
343
214
663
363
318
306
312
323
339
362
385
397
394
354
317
311
306
305
309
331
330
319
310
313
313
306
377
647
299
291
294
305
312
335
358
377
385
378
340
315
316
318
320
323
332
347
328
329
326
331
330
299
663
333
323
322
330
342
358
384
402
410
412
373
345
343
340
342
342
345
361
358
347
345
347
354
324
539
633
331
322
318
322
334
351
369
379
393
381
341
320
327
318
316
316
316
330
335
315
307
311
307
264
490
494
287
282
286
291
304
321
340
355
362
350
310
281
278
275
277
277
289
306
297
291
294
301
306
203
660
327
297
302
311
324
340
365
386
402
406
372
344
329
331
337
336
348
362
353
346
338
351
353
274
660
362
348
346
358
366
383
405
418
420
410
384
347
345
348
352
367
388
382
357
356
364
356
277
662
461
356
344
354
358
375
401
424
422
431
408
371
355
349
349
362
380
374
365
362
365
364
282
663
505
362
356
366
371
381
396
420
429
433
412
364
349
348
356
355
377
369
359
351
350
351
320
502
594
339
329
333
341
344
373
386
406
407
392
343
319
322
316
321
319
331
343
326
320
326
326
308
423
575
316
305
304
320
332
340
366
381
393
376
343
318
315
309
309
302
308
305
327
318
303
314
316
312
225
660
365
303
306
306
314
333
345
369
380
379
354
307
292
289
287
291
303
308
316
321
317
307
313
308
238
614
396
299
300
307
320
335
357
388
395
400
380
342
319
316
328
323
333
357
353
324
325
333
333
236
663
469
335
325
324
340
351
362
390
405
400
376
338
316
320
317
309
318
342
332
329
327
328
334
267
659
486
327
318
316
332
342
370
388
399
405
377
340
317
318
321
324
321
331
354
339
326
321
330
326
194
664
355
311
300
308
317
337
355
382
389
392
360
321
308
301
303
304
313
311
336
336
319
320
328
323
238
659
403
307
304
316
320
321
352
377
387
390
370
322
301
302
302
303
307
306
320
337
320
317
317
318
305
312
624
314
306
305
309
323
343
360
372
386
384
342
305
303
296
298
304
308
313
325
324
315
318
320
327
234
660
380
325
327
340
353
363
396
399
420
419
391
358
338
331
335
343
348
365
365
360
352
363
361
332
500
632
355
341
353
354
364
387
402
422
433
410
367
343
340
337
333
341
347
364
361
343
345
348
353
240
664
368
330
329
334
348
366
385
409
415
413
388
342
330
326
324
320
316
331
341
332
319
314
318
317
203
662
350
297
292
303
308
313
338
357
376
364
347
305
290
287
291
295
294
304
325
320
318
316
318
322
233
661
374
324
326
337
356
367
391
419
429
437
409
377
356
358
365
366
373
384
402
407
396
397
403
406
329
662
520
396
388
399
409
413
437
457
474
474
447
410
386
378
379
384
378
385
395
390
377
373
371
382
308
653
457
361
356
353
366
375
385
406
419
417
387
349
323
315
320
313
314
331
341
322
317
315
312
304
360
562
310
301
296
309
316
346
364
380
384
377
344
311
298
301
299
314
332
327
307
306
307
311
258
562
469
312
305
309
322
331
351
374
385
394
370
335
313
310
317
315
334
349
340
328
327
330
328
225
663
372
326
325
327
337
348
366
386
402
400
376
329
325
317
318
324
327
342
333
321
323
324
326
215
662
358
305
296
309
315
322
338
364
382
378
352
313
305
302
305
303
310
314
332
316
309
308
320
307
275
652
325
312
310
320
331
356
370
391
395
391
355
322
309
307
311
308
326
346
332
322
325
329
325
223
661
351
308
309
324
322
343
362
384
392
386
363
313
303
299
302
310
323
336
324
317
317
318
324
228
662
333
317
308
313
332
347
368
391
401
399
358
324
322
312
320
327
350
350
340
339
341
342
333
378
657
336
332
328
335
345
362
388
402
412
402
359
338
327
325
328
324
332
343
346
330
335
336
342
239
662
399
329
326
329
344
357
368
397
414
422
393
364
329
333
331
336
335
338
362
348
343
345
344
341
245
662
378
324
323
328
341
349
367
395
406
420
382
350
321
316
323
318
322
342
347
327
330
333
333
318
385
589
336
317
320
325
338
361
387
400
409
395
355
328
322
326
331
336
355
364
361
354
357
350
352
250
663
408
352
346
342
348
369
384
407
428
414
390
356
337
329
332
337
342
354
357
343
343
346
346
308
551
589
336
321
324
333
351
365
381
400
415
392
349
325
326
321
321
320
325
346
348
332
334
331
326
320
375
642
315
310
311
310
321
336
362
377
388
374
340
298
301
286
286
282
281
274
279
303
287
278
271
268
266
153
647
278
234
228
229
237
251
268
289
306
306
287
246
228
231
225
228
238
239
249
266
289
276
284
290
299
286
379
529
310
303
313
325
343
367
388
421
422
421
394
357
349
352
364
364
373
395
404
406
395
403
403
413
316
664
462
402
401
404
415
429
451
472
485
490
456
420
398
402
396
401
406
410
425
404
400
401
391
400
323
664
382
367
371
370
383
398
412
433
439
429
393
359
348
344
344
341
347
358
361
347
342
350
342
319
453
595
326
321
321
322
329
345
362
387
392
378
334
306
300
296
296
295
292
302
319
301
300
298
297
289
311
589
292
274
291
297
315
331
364
378
397
402
357
340
323
314
313
322
337
357
368
366
374
385
399
303
662
487
377
373
390
410
429
452
482
493
499
473
428
408
411
400
405
405
409
414
404
405
408
405
357
626
568
389
380
381
388
397
412
429
435
451
431
394
355
356
350
351
365
360
347
336
328
327
331
240
643
364
298
304
305
314
325
328
355
358
363
343
304
293
294
299
314
330
341
328
309
317
317
314
355
611
324
317
320
324
333
344
369
387
400
392
367
334
324
327
327
344
342
329
319
330
329
339
271
663
354
338
339
348
357
379
403
430
444
442
407
382
364
358
357
370
384
382
369
375
376
374
284
662
420
360
340
357
361
377
389
409
414
415
395
366
336
334
332
333
360
352
325
329
332
337
274
596
463
321
321
326
335
342
366
382
400
399
377
331
305
305
303
316
334
330
311
312
316
321
236
657
428
313
316
324
330
350
364
389
401
411
377
342
323
326
328
337
354
349
339
333
338
335
274
634
477
344
340
338
350
370
376
405
419
429
406
369
355
353
353
350
355
364
364
347
360
363
354
260
662
374
346
341
343
354
369
391
415
433
421
391
352
322
325
328
336
329
341
340
330
329
333
329
311
396
579
329
303
316
316
329
348
369
389
390
386
348
316
314
314
319
333
352
350
333
327
329
332
259
652
478
323
312
321
335
342
371
387
402
401
382
334
327
322
326
332
339
355
342
329
329
334
334
225
664
339
318
318
321
327
338
365
380
402
393
347
324
315
313
316
324
325
317
335
323
323
323
328
303
463
613
317
311
319
321
345
361
375
394
409
396
346
328
314
322
309
323
335
334
342
329
334
338
345
292
518
569
319
307
327
322
341
353
386
400
411
382
344
318
318
323
319
331
331
366
338
330
330
332
327
225
662
338
311
303
314
311
325
350
368
398
392
362
317
301
296
296
295
319
325
326
313
302
314
311
212
660
341
306
307
320
326
341
370
382
397
397
369
320
318
310
311
316
335
336
325
323
322
323
327
354
649
330
324
323
331
343
356
388
399
416
399
355
333
324
333
335
345
362
354
346
343
347
348
267
661
436
350
333
341
348
358
373
393
406
413
378
352
330
330
328
333
339
352
345
332
330
335
328
239
661
411
332
307
321
346
340
366
375
399
403
377
332
327
315
331
311
322
333
320
329
320
328
339
232
662
353
322
320
336
330
347
359
390
400
401
371
324
318
324
319
329
334
339
332
326
332
343
308
485
520
340
328
331
347
355
375
400
404
416
388
340
325
317
312
321
323
324
307
298
292
308
263
554
431
317
304
321
316
330
351
375
390
381
373
327
308
299
311
333
353
342
338
348
355
343
237
664
374
323
317
325
337
337
350
370
373
364
326
295
280
294
296
308
307
300
287
290
279
284
323
583
271
245
259
264
273
286
310
316
331
327
275
264
250
265
263
271
282
261
262
269
274
248
430
473
284
278
292
298
311
327
348
370
389
372
330
322
320
316
314
325
333
337
332
336
344
358
257
662
388
351
356
352
360
377
402
413
422
432
397
377
344
337
343
348
364
365
356
362
352
354
284
661
485
341
340
363
369
377
396
426
426
421
410
373
350
352
354
381
385
387
379
374
371
378
276
664
504
355
364
356
371
395
412
424
440
436
419
361
358
353
361
368
389
381
366
360
362
361
272
663
520
370
363
367
376
393
411
429
440
444
414
379
372
358
352
355
377
352
351
337
335
341
306
564
525
346
340
321
330
344
361
368
389
397
376
348
332
329
332
332
327
349
343
327
326
336
331
240
662
373
334
333
347
341
354
380
390
409
406
393
346
333
336
334
342
353
360
363
347
353
348
361
270
663
373
359
360
361
375
387
400
424
423
426
387
345
337
333
340
346
362
379
359
355
361
367
315
580
534
365
347
357
346
360
378
408
407
414
407
363
343
336
341
330
346
351
336
328
336
335
329
353
623
335
333
329
343
340
364
381
400
413
399
363
331
324
329
325
328
345
343
320
329
332
332
240
660
367
313
316
339
342
354
372
385
401
392
372
331
320
330
326
336
361
354
340
343
351
346
242
663
397
346
341
351
360
376
390
417
421
428
392
364
349
345
343
354
372
361
349
350
348
350
252
663
366
340
337
344
354
367
372
401
400
398
377
354
331
339
330
337
340
348
327
323
322
321
270
540
444
312
300
309
303
314
331
354
368
372
359
324
300
285
286
275
295
318
298
301
289
295
312
238
647
312
287
294
303
317
337
359
389
386
380
352
320
311
309
322
340
361
343
334
342
339
349
240
664
374
345
349
353
356
380
398
415
415
413
387
344
339
337
338
347
374
362
352
347
344
351
240
663
441
343
335
333
347
359
380
403
410
413
387
358
331
334
338
343
351
369
350
338
338
339
337
320
661
340
327
327
329
344
355
373
402
407
401
364
326
333
325
335
330
338
353
343
332
329
340
335
229
662
381
318
312
327
319
344
366
381
398
401
366
330
309
308
308
306
309
318
348
328
308
320
317
314
416
583
335
313
326
337
346
365
392
401
407
401
364
337
323
330
321
331
343
347
332
333
343
342
281
621
497
342
323
329
335
351
367
396
408
409
385
349
326
325
330
327
328
338
336
322
313
322
316
210
661
346
296
296
296
310
321
337
357
376
373
334
296
286
276
283
284
301
310
293
294
296
302
296
310
598
298
291
298
298
317
330
355
377
384
375
345
307
310
299
308
325
352
333
329
331
331
336
218
664
402
328
324
332
337
356
376
404
421
415
389
353
348
344
357
353
367
388
371
359
365
367
367
306
664
361
347
348
361
372
385
407
423
431
431
398
356
364
365
372
360
365
386
385
370
374
372
371
272
664
504
342
336
336
353
366
396
416
429
441
409
361
343
337
362
320
336
347
356
344
345
344
347
327
389
652
317
316
326
326
343
360
378
396
406
407
354
321
325
314
317
315
324
340
344
330
333
333
325
214
658
330
300
300
315
324
334
349
377
384
381
346
304
289
282
292
309
332
333
307
314
306
307
290
445
479
301
288
314
320
331
365
385
405
419
406
346
326
324
330
329
349
358
339
344
338
343
348
301
663
337
326
335
334
357
362
384
402
411
393
367
336
340
335
333
347
363
364
337
339
341
347
216
664
403
338
326
328
338
352
370
394
403
412
376
350
340
330
336
340
331
356
345
332
334
336
340
231
664
355
327
323
331
333
354
373
396
404
406
368
342
328
332
336
332
342
357
360
347
354
356
357
303
615
523
355
332
345
339
353
371
392
399
408
387
336
316
304
310
306
314
333
339
316
321
328
332
280
522
468
314
308
313
316
331
353
378
389
395
373
338
317
318
310
332
348
354
345
335
337
343
350
283
661
343
329
331
341
342
364
396
407
422
406
377
353
346
343
352
369
382
378
356
360
361
361
250
663
393
343
343
349
356
362
393
407
414
407
370
333
326
331
321
315
327
341
326
324
331
329
323
331
629
326
310
307
322
326
347
369
389
390
377
344
317
299
306
317
322
335
348
337
341
347
351
300
585
571
345
327
332
337
343
360
396
404
414
390
355
336
333
330
334
357
361
343
347
346
344
339
387
661
342
339
334
340
349
367
403
413
422
397
373
341
339
338
342
352
362
373
367
367
374
375
350
472
660
351
352
356
361
369
382
407
430
433
416
372
348
348
347
348
342
362
363
359
335
349
352
340
307
660
340
324
326
330
344
361
387
414
412
408
364
326
316
323
320
323
327
335
348
343
340
345
337
240
661
388
321
313
329
346
335
383
397
415
430
385
357
332
331
341
349
356
369
349
352
357
347
346
261
664
365
346
340
350
361
375
400
421
424
421
378
349
341
350
349
356
380
363
357
359
354
356
255
663
431
339
339
335
347
360
367
400
412
408
374
333
316
320
311
309
313
312
307
290
294
287
289
209
576
364
253
254
256
267
268
293
315
328
324
305
258
235
229
240
238
247
266
259
256
263
260
272
199
550
365
265
263
269
282
303
330
356
372
385
358
321
302
306
304
318
328
336
342
328
338
346
340
277
663
353
340
349
347
366
387
418
441
451
439
410
383
376
374
381
383
389
404
397
392
392
390
399
311
664
408
383
377
383
399
406
436
457
466
453
419
382
356
362
357
353
375
383
379
367
369
368
367
272
662
382
356
352
362
365
381
404
431
432
431
396
350
342
342
347
352
371
365
358
359
348
358
360
341
661
351
340
346
352
362
378
396
423
429
414
371
347
342
345
332
344
363
357
348
348
349
344
261
663
437
340
335
341
349
370
388
410
426
419
392
354
338
342
340
347
364
364
353
343
346
349
311
533
537
333
321
330
331
348
366
383
399
411
385
335
319
311
305
316
324
333
309
314
305
312
306
314
586
298
296
285
283
296
312
338
359
371
353
318
286
280
285
289
306
314
311
295
304
299
307
257
657
310
289
301
303
315
336
357
388
393
387
349
330
316
321
334
347
359
348
343
350
351
344
329
662
350
337
346
356
360
383
407
431
442
432
388
353
358
342
352
358
377
367
358
363
368
362
264
662
422
355
360
361
370
392
405
434
440
449
404
362
349
350
351
359
372
367
359
356
355
361
303
633
488
346
352
362
362
370
397
429
430
430
411
369
344
343
350
356
376
364
356
349
356
350
244
663
424
345
338
342
359
363
385
416
428
423
386
357
341
341
348
358
369
354
348
350
350
346
329
661
341
328
329
335
342
357
380
402
411
394
362
326
325
319
335
345
337
331
334
347
332
245
662
373
335
330
327
335
355
377
401
413
400
370
337
329
331
338
362
369
353
348
358
355
315
558
573
344
337
347
346
362
391
407
429
417
399
375
336
344
354
364
378
366
360
361
361
360
315
663
348
337
353
359
363
382
403
414
433
409
376
350
334
343
352
359
359
352
350
342
345
269
652
436
320
319
316
331
327
348
385
382
393
352
315
297
295
292
294
299
300
292
292
304
283
213
620
348
275
273
286
289
304
315
345
366
363
338
301
289
294
284
304
314
310
303
304
302
304
198
662
335
299
306
308
323
340
357
381
396
391
363
340
327
329
331
347
362
352
337
342
344
349
351
659
344
342
347
344
360
375
404
425
425
423
381
357
347
350
350
370
370
374
365
375
367
339
540
572
363
358
356
365
377
397
412
431
430
410
384
354
348
359
373
385
385
372
376
372
375
336
663
377
359
359
361
380
390
410
427
432
423
382
369
361
359
371
389
380
366
360
366
364
267
664
375
346
345
352
350
365
391
409
416
414
367
347
341
336
337
348
354
347
335
336
327
275
592
444
322
319
319
324
342
365
390
399
405
374
334
324
318
321
338
344
337
332
338
339
337
240
661
349
326
356
328
347
365
391
414
415
424
392
345
350
344
357
351
368
356
333
349
346
243
663
401
343
340
348
350
380
389
413
427
421
390
359
352
355
367
368
374
357
352
359
347
258
664
365
347
327
338
358
379
396
389
452
432
352
348
364
345
319
345
340
313
319
313
301
219
593
377
294
307
322
345
359
398
422
432
422
394
347
318
303
324
339
357
351
348
364
363
314
571
541
332
326
327
334
349
378
386
414
408
398
367
343
350
338
342
343
334
325
315
329
287
520
473
302
288
294
287
294
302
330
327
333
309
272
252
243
235
242
245
239
217
211
207
204
120
553
208
184
174
182
190
195
226
235
249
232
204
172
170
170
183
205
202
194
207
217
219
126
649
253
247
249
267
279
307
338
366
378
375
344
333
332
336
350
372
382
374
374
380
375
290
664
522
386
392
401
415
431
460
471
495
488
467
434
419
417
420
421
436
436
421
420
432
421
348
665
433
415
412
409
419
431
457
486
475
478
446
404
398
386
398
406
409
406
401
401
390
347
630
586
376
366
365
376
379
401
402
414
422
400
358
345
343
351
359
368
361
346
352
344
350
340
661
343
335
338
346
361
373
405
412
422
412
377
341
337
363
347
346
353
326
330
318
329
236
662
359
329
318
328
336
330
372
388
392
401
367
344
320
311
319
321
333
338
325
307
312
291
501
447
299
300
306
314
331
336
407
396
383
381
316
336
325
343
341
368
369
346
376
370
369
315
663
374
355
352
371
364
388
394
408
401
393
364
338
336
337
353
369
364
350
358
368
318
556
555
356
347
352
367
371
393
413
427
427
401
379
349
354
349
370
369
347
334
344
339
238
663
421
321
328
320
328
337
356
382
388
375
352
311
291
284
292
301
294
284
272
288
275
166
661
290
265
270
264
282
290
312
337
342
343
314
280
275
279
295
310
319
306
300
291
309
192
661
336
272
276
276
283
307
325
358
372
377
369
334
326
330
336
352
359
329
329
340
346
250
663
400
352
336
351
362
377
408
434
446
453
431
401
386
382
382
392
404
387
380
388
389
379
453
653
367
357
358
354
366
380
419
424
429
424
380
349
336
335
354
360
371
352
353
344
341
236
662
381
335
332
336
338
362
368
397
402
395
380
344
327
333
330
343
357
351
334
346
351
352
337
662
353
354
360
360
366
391
405
426
424
422
399
356
360
360
373
373
391
379
368
361
372
358
381
662
346
348
348
360
368
383
404
426
425
409
387
362
369
348
361
371
386
386
372
370
376
375
255
664
399
354
344
348
357
375
388
414
426
413
389
355
336
324
340
340
345
356
336
333
333
336
302
513
507
332
318
332
343
353
372
401
403
411
409
368
340
335
336
338
348
360
343
339
335
341
336
355
657
332
335
328
342
347
361
391
405
411
407
372
350
338
338
349
341
352
348
322
328
331
332
249
660
343
321
318
324
331
345
372
381
399
382
357
327
316
316
322
338
342
338
321
341
325
339
233
662
362
343
333
329
343
364
355
352
350
327
299
271
278
281
302
342
353
341
333
325
331
308
417
613
315
308
300
327
330
358
386
389
389
381
370
343
338
337
354
383
376
352
351
354
358
241
664
364
338
329
344
348
366
384
395
394
393
375
358
355
362
379
407
403
379
372
379
377
277
665
538
375
364
378
381
391
409
437
447
435
414
375
367
367
379
386
393
387
368
376
374
373
341
664
359
346
354
359
368
384
412
420
426
415
372
360
355
347
348
369
377
362
356
354
357
356
280
663
355
332
334
344
354
367
385
402
408
416
370
358
354
336
349
336
362
352
337
327
331
333
230
662
437
316
307
310
319
332
351
374
385
385
359
324
311
309
310
307
310
313
316
304
303
297
296
187
661
343
274
264
270
276
286
314
332
343
339
317
282
271
270
269
269
273
288
292
277
287
283
289
190
662
312
284
282
288
303
320
343
373
382
384
354
331
315
317
318
330
347
350
348
333
342
352
344
396
657
349
345
344
352
366
382
409
436
427
423
390
367
360
365
360
369
385
387
376
370
376
381
275
663
391
362
354
361
365
380
401
421
429
418
387
350
338
344
342
360
358
347
342
346
348
309
498
548
337
326
335
341
348
362
390
397
396
376
337
316
314
316
335
338
338
319
324
325
330
241
662
324
310
324
305
333
347
374
386
392
383
349
336
320
326
343
351
351
333
336
334
341
228
663
364
331
327
337
345
366
382
414
408
411
376
346
344
350
352
371
384
362
369
362
372
270
664
490
354
357
366
363
383
403
422
440
436
395
368
360
354
351
350
358
368
356
352
344
349
342
267
663
322
303
298
308
301
327
340
371
365
355
314
292
280
275
271
279
273
273
287
283
279
285
286
287
232
657
295
271
281
288
296
314
337
365
372
366
332
298
289
296
290
292
302
328
331
324
329
351
348
237
663
382
341
344
370
370
391
415
444
443
445
416
372
370
374
371
381
405
392
389
384
383
385
321
662
612
374
379
373
381
383
406
435
445
450
425
385
368
382
376
364
363
380
382
375
361
370
364
251
664
435
346
348
355
361
379
399
423
435
427
390
356
352
353
342
347
361
367
343
340
347
350
271
648
480
337
338
342
342
340
376
410
404
384
362
319
297
298
273
274
261
270
281
258
256
257
250
157
569
315
214
206
205
213
212
234
257
263
252
225
195
177
177
178
186
211
215
211
203
216
223
152
572
318
238
230
243
254
286
303
341
359
357
344
324
318
316
326
333
347
353
354
351
362
362
350
524
610
376
366
381
388
393
419
448
459
467
457
419
390
402
406
396
410
423
421
413
411
414
429
329
664
434
401
395
401
409
428
431
452
455
448
404
381
369
373
375
370
397
384
365
364
357
362
272
661
398
355
346
353
364
369
389
411
410
415
392
370
318
337
355
375
372
357
361
353
352
324
513
613
345
322
327
331
345
359
385
402
397
369
334
318
309
317
333
343
328
313
313
305
309
260
663
308
299
293
309
312
337
362
375
386
368
335
316
309
302
318
330
337
327
328
330
324
288
566
565
332
329
326
341
365
376
404
417
418
401
361
355
352
349
361
354
376
388
360
362
372
371
260
664
414
363
352
358
369
371
390
410
423
418
378
346
341
345
356
359
357
374
365
352
349
360
348
390
656
349
343
339
353
369
371
396
415
418
395
354
341
335
332
341
341
361
371
356
353
356
371
264
662
400
334
334
343
345
361
371
410
419
406
376
329
338
329
327
324
352
312
320
306
333
304
163
663
336
320
293
315
299
348
338
387
364
342
319
280
301
307
302
332
359
340
342
340
356
344
445
664
354
345
367
366
389
388
420
420
426
397
356
347
335
347
352
369
394
385
377
385
384
373
429
664
361
359
354
367
376
408
437
452
436
416
372
354
365
379
383
386
405
396
374
360
369
362
225
664
387
335
336
341
352
373
396
415
416
406
357
329
305
310
313
318
343
331
327
328
329
340
303
483
629
330
336
340
343
356
381
395
411
412
397
353
334
339
333
344
354
368
354
344
343
344
344
227
665
359
329
329
335
347
364
390
405
413
403
364
340
337
338
342
349
363
373
369
364
368
377
343
498
661
342
337
334
334
342
361
385
399
406
379
346
325
322
321
319
319
335
331
316
314
319
314
203
662
396
304
298
304
310
326
354
377
389
384
348
310
300
300
299
310
323
332
326
317
325
330
329
320
661
333
313
313
323
333
357
385
407
416
409
375
352
344
341
344
358
370
354
348
347
354
355
261
665
362
337
334
341
351
370
402
422
432
417
374
348
337
337
340
352
374
366
350
348
350
353
223
663
444
336
331
338
348
366
392
416
427
420
381
346
336
337
342
343
352
374
370
354
353
354
357
244
663
522
337
330
337
347
360
384
409
421
418
384
349
336
335
340
338
340
339
345
363
358
347
348
349
347
211
664
381
325
324
329
338
354
382
404
415
407
370
334
322
321
324
324
325
329
347
348
336
332
334
335
270
614
572
315
307
311
320
329
353
379
391
391
362
320
299
295
294
295
295
294
297
312
316
302
302
303
304
233
590
499
289
283
288
296
308
334
364
383
385
360
318
300
298
303
304
308
310
314
326
346
336
334
338
340
332
361
663
333
325
331
341
353
375
408
425
433
421
379
352
347
349
350
353
352
354
367
377
362
357
361
360
330
490
644
338
333
336
340
354
372
397
410
411
382
334
300
295
295
296
298
298
305
324
309
296
297
295
291
231
658
287
263
260
269
279
300
323
344
348
335
294
262
256
262
266
269
283
300
295
283
286
290
293
165
664
338
292
290
299
314
335
361
388
401
396
358
329
324
328
331
334
342
363
370
356
357
362
365
321
587
657
356
359
363
373
387
412
440
456
458
433
391
376
377
378
380
380
383
403
403
389
387
390
392
298
663
609
365
364
364
366
382
401
421
429
427
390
338
320
312
314
307
303
303
320
320
299
297
292
288
233
533
436
267
258
258
268
281
306
329
343
344
317
274
252
251
251
255
267
281
306
293
288
289
292
297
205
662
319
295
297
313
326
351
382
404
407
403
366
339
337
340
347
356
379
385
368
363
369
373
355
469
663
363
363
364
375
388
414
441
462
466
442
400
382
377
378
380
385
395
410
397
386
388
390
390
288
665
405
362
358
364
374
393
420
441
449
436
394
364
356
358
360
358
358
368
380
367
362
360
361
354
356
663
340
336
336
342
353
373
397
415
421
403
360
331
325
324
323
321
320
325
342
332
318
314
317
314
182
663
319
281
275
278
283
297
320
337
342
336
297
258
245
254
248
247
251
261
275
265
257
256
262
260
240
608
269
250
260
270
286
307
341
363
375
362
326
292
288
294
302
312
328
350
338
330
331
336
343
229
664
372
338
340
349
362
385
413
435
443
439
398
363
355
359
362
371
393
399
382
373
378
380
364
461
663
363
364
367
375
388
410
441
456
459
434
390
368
364
370
372
377
393
396
380
372
373
376
355
474
663
353
354
355
362
374
395
422
438
441
416
372
350
348
346
348
347
348
368
362
345
342
343
344
224
664
467
314
303
308
313
323
346
370
380
378
343
301
284
282
278
274
271
269
279
285
267
256
263
259
234
385
520
244
238
242
249
264
293
319
344
351
334
292
266
265
269
271
281
303
314
300
302
306
307
289
427
582
307
304
308
318
338
364
397
414
420
397
355
337
334
340
345
360
383
382
357
357
360
363
264
663
525
345
344
358
370
392
422
449
458
456
420
381
370
372
374
386
400
419
397
384
383
389
384
285
664
376
353
348
353
363
379
406
429
435
421
381
347
335
334
334
334
336
350
350
333
331
331
336
244
662
449
317
313
317
326
339
365
388
399
401
371
338
324
327
336
348
359
380
373
350
344
342
346
258
663
577
331
332
339
347
363
387
413
423
424
386
345
323
325
324
327
333
358
355
340
338
336
335
258
611
590
290
281
286
290
308
327
357
369
364
327
272
247
245
239
237
239
244
259
243
238
240
239
237
187
661
235
217
220
230
247
271
302
328
342
328
286
258
262
272
283
287
294
315
332
321
323
328
336
323
416
663
330
335
339
348
368
392
429
452
457
444
397
369
370
371
370
374
379
398
392
387
387
393
392
274
664
478
379
378
384
396
411
437
462
474
469
437
396
377
372
377
377
390
405
401
383
386
395
391
276
664
574
378
371
373
381
394
422
445
456
452
416
372
353
348
345
345
354
370
359
346
345
347
350
205
665
412
327
318
323
331
348
375
401
409
402
362
326
319
323
321
318
322
332
323
304
295
295
297
152
663
304
267
266
270
278
295
309
327
338
322
286
258
251
256
262
263
278
289
285
283
292
303
308
269
662
324
319
324
333
345
366
399
421
431
422
377
358
357
367
360
368
389
391
380
383
388
387
329
620
657
358
352
353
362
368
392
420
439
430
406
357
335
341
339
336
338
337
342
335
334
339
336
331
350
652
318
300
299
301
317
337
351
374
375
352
317
281
274
276
274
291
300
295
294
290
293
299
185
663
406
292
282
287
309
322
345
378
392
398
369
333
321
320
323
325
344
343
330
330
335
336
292
553
646
322
323
318
333
347
370
401
424
427
403
363
347
346
346
344
345
358
358
352
359
371
375
235
665
452
361
351
355
364
377
407
429
443
442
397
356
352
353
343
341
339
345
340
334
329
333
330
199
663
349
304
301
307
316
327
357
376
380
370
332
291
281
278
281
284
299
310
289
290
288
296
291
332
592
295
286
288
296
311
336
363
379
381
369
318
296
289
293
301
315
325
319
313
315
320
331
198
665
358
321
322
326
336
357
384
405
419
412
367
338
340
347
350
354
370
367
363
363
366
368
319
582
660
351
353
356
361
376
399
425
442
447
417
369
354
349
349
345
343
359
365
353
355
357
360
336
458
656
340
334
339
343
354
377
401
421
421
395
356
324
317
319
319
325
332
340
334
335
331
340
345
258
663
353
328
331
338
354
378
401
419
425
408
368
335
334
335
350
350
359
370
364
353
353
355
365
236
664
394
342
339
347
356
373
398
418
429
414
372
340
337
339
336
332
332
348
351
341
339
342
342
296
538
643
324
319
319
329
339
365
390
402
406
381
333
310
306
306
303
310
306
315
324
324
317
323
317
325
195
662
349
305
302
310
323
338
362
381
389
380
352
315
291
296
301
315
329
333
346
336
336
339
338
338
286
663
329
322
321
320
332
356
386
406
407
390
350
310
315
317
317
320
338
348
347
331
335
336
321
348
663
327
323
327
331
346
365
393
416
419
391
343
323
319
313
310
307
321
325
310
302
298
300
280
362
642
273
251
255
254
260
277
301
317
315
296
239
220
214
212
218
223
234
246
246
244
245
254
263
152
660
308
274
278
284
299
329
369
393
408
399
368
338
332
339
352
366
386
403
395
394
398
406
406
335
664
434
399
402
412
420
451
485
499
508
491
444
409
410
409
420
418
432
446
432
425
421
432
419
392
665
422
395
390
395
398
414
439
458
463
441
393
365
360
362
356
352
358
361
359
350
345
341
344
216
663
358
321
324
316
331
337
375
385
393
383
335
306
294
298
305
309
332
341
332
329
337
335
337
324
663
362
329
362
382
352
355
398
427
429
417
382
351
343
335
332
332
339
316
311
329
334
302
248
663
287
262
313
225
261
245
291
296
293
294
268
243
270
291
290
290
280
270
227
240
230
235
120
663
369
317
323
333
344
358
391
428
430
431
402
366
370
388
389
400
408
430
430
427
421
422
433
285
666
580
416
407
411
416
425
444
459
470
453
409
370
361
360
356
357
354
362
370
364
357
358
363
352
345
663
339
334
329
335
345
360
382
399
403
387
343
313
310
311
309
308
308
308
327
321
316
318
321
328
191
663
347
314
316
313
326
345
372
397
412
407
371
330
324
323
324
324
327
329
350
346
333
330
335
338
220
662
430
323
319
324
333
344
368
391
406
403
369
333
318
320
320
326
325
327
340
344
337
334
342
341
272
597
559
328
320
317
319
329
352
373
387
386
361
316
293
292
288
289
289
287
294
312
307
297
300
301
304
180
662
314
277
276
282
290
305
333
355
365
356
320
285
280
283
284
290
297
304
314
334
338
335
346
355
361
304
663
371
361
367
374
384
402
429
445
453
444
405
372
366
364
370
368
372
375
385
397
388
393
395
402
372
490
662
374
378
375
382
390
408
431
446
446
422
381
348
345
345
345
345
342
349
362
349
342
341
340
336
218
661
352
315
314
318
334
353
378
397
402
400
369
332
323
323
326
334
336
351
353
339
342
341
343
281
607
570
327
323
334
343
354
382
410
424
424
396
352
332
330
324
328
325
341
343
329
326
325
322
304
381
648
299
291
288
291
302
320
343
363
375
356
317
296
292
294
295
299
298
321
320
316
322
329
331
234
661
483
325
323
325
341
350
377
399
414
416
392
353
339
340
342
338
346
344
359
354
349
342
342
346
254
656
486
335
335
346
345
363
391
412
423
430
405
368
345
345
347
352
354
360
380
374
362
365
373
369
267
663
395
355
351
354
366
373
399
415
415
408
370
329
317
318
316
323
335
346
329
320
319
325
326
221
664
345
319
313
318
330
350
375
394
402
393
357
329
323
321
327
323
328
346
344
330
336
335
335
215
663
466
320
318
317
323
335
359
383
387
385
351
314
305
301
305
308
308
314
328
339
333
332
335
348
328
437
662
363
368
367
377
378
404
423
442
451
438
401
380
373
378
372
370
368
372
389
388
388
385
396
396
271
664
446
370
367
368
378
388
416
434
444
429
393
349
325
317
315
311
313
331
329
313
312
311
315
215
610
431
272
261
267
279
298
315
347
364
364
333
290
278
275
278
284
294
315
310
305
308
315
318
189
664
349
311
308
319
329
348
373
399
412
407
367
336
330
332
335
335
342
358
353
345
345
345
344
216
664
342
305
302
304
309
323
346
363
369
355
311
277
266
260
259
243
238
253
246
234
235
238
243
124
640
314
236
237
246
259
281
315
344
368
374
353
320
312
320
326
337
356
376
372
374
382
390
387
399
663
389
387
391
401
415
429
463
477
479
463
413
385
384
382
385
398
412
407
395
396
396
400
273
664
433
374
372
376
388
404
427
446
453
440
396
365
362
362
360
357
364
378
367
360
360
359
345
382
662
335
330
331
337
347
367
390
409
413
394
346
325
324
323
324
329
335
348
343
336
341
344
341
288
663
336
325
327
329
341
358
383
401
408
393
355
327
325
324
324
325
326
332
348
347
341
344
345
347
218
663
362
325
323
328
336
352
374
392
396
390
348
306
297
288
288
287
288
288
285
304
299
281
282
282
279
143
660
311
259
254
260
272
283
307
327
334
327
299
250
235
233
233
242
247
252
266
282
272
268
277
281
250
442
524
293
287
298
312
325
352
380
398
403
388
353
326
330
333
337
342
347
365
371
360
358
365
366
319
561
659
350
357
366
375
390
417
452
471
479
453
410
386
380
374
367
361
357
363
369
358
350
355
351
310
508
652
328
323
330
340
355
380
408
425
430
408
366
344
345
347
347
348
352
355
370
363
359
362
362
362
293
664
359
344
344
344
352
370
392
411
416
407
363
332
323
324
326
327
331
329
339
355
354
348
351
354
353
246
664
364
335
334
340
352
367
397
418
425
421
384
344
330
327
327
330
329
332
356
347
341
343
340
340
223
662
387
306
307
299
312
324
347
374
378
370
344
311
292
299
305
313
329
346
353
340
347
347
351
261
661
519
348
342
348
358
374
394
418
429
423
390
345
328
326
329
331
335
353
363
353
351
350
349
334
394
661
327
321
320
322
327
336
357
364
365
338
292
264
263
264
269
269
275
293
295
286
284
286
293
192
654
441
291
289
296
306
322
344
370
386
391
360
321
307
310
306
308
307
312
326
335
331
336
336
346
322
435
649
337
334
341
348
360
378
408
424
434
417
374
348
342
352
356
360
362
382
384
373
374
379
374
343
542
635
364
360
363
371
385
407
434
454
457
437
400
378
377
379
384
385
393
409
404
389
392
398
396
261
665
526
377
375
380
381
396
415
442
451
447
407
373
362
360
361
359
360
368
377
362
351
353
354
349
303
664
346
338
340
351
361
377
397
415
423
410
365
334
329
330
331
331
328
329
334
348
339
332
332
331
324
332
661
314
307
308
318
329
347
371
393
402
395
356
325
325
327
326
333
330
341
354
370
363
366
370
375
343
477
658
354
349
356
362
373
392
414
431
434
414
367
333
325
324
323
331
328
336
352
344
336
335
337
334
223
662
348
314
309
318
326
341
365
384
392
384
349
309
298
299
302
307
311
315
336
332
323
327
327
328
210
663
446
316
313
320
331
348
373
400
413
417
388
352
335
338
339
342
348
350
358
378
370
369
372
375
374
314
663
370
357
357
363
377
389
414
437
440
430
392
354
345
342
340
339
344
343
350
364
357
355
355
356
356
265
663
353
333
332
337
344
361
385
406
413
405
370
329
321
320
323
324
325
335
352
347
339
342
345
341
213
664
374
326
321
327
336
347
369
392
396
394
359
313
301
293
288
293
287
277
297
296
285
289
294
301
209
646
403
311
313
323
333
344
368
397
408
413
386
347
326
324
327
324
325
336
339
327
319
324
329
326
314
659
331
314
316
323
339
360
388
410
422
414
380
353
354
362
368
376
396
401
394
388
393
390
381
393
664
358
348
343
342
350
361
385
397
401
384
340
309
304
306
300
300
307
322
312
308
312
318
317
212
664
332
311
312
318
334
354
382
407
421
414
378
344
343
340
346
344
349
362
373
362
361
366
369
345
464
660
354
350
356
362
377
398
423
440
447
429
386
361
348
348
352
352
353
356
378
369
365
363
365
366
242
663
396
351
344
346
355
362
392
412
420
417
383
345
325
327
332
338
344
362
364
352
348
352
354
313
506
643
330
323
322
334
349
369
395
410
418
401
363
335
335
335
334
339
346
357
345
338
339
339
340
219
663
339
305
302
306
309
323
343
366
372
362
322
281
270
265
262
261
262
270
288
277
271
265
272
275
186
641
281
250
250
257
270
292
314
332
342
336
304
262
257
259
267
274
295
315
318
309
315
324
332
233
663
477
331
335
344
360
378
406
433
453
451
425
383
368
372
375
378
388
408
408
391
387
390
392
318
660
659
368
368
373
380
393
413
439
456
460
429
386
369
368
367
365
366
367
380
389
379
378
378
377
358
455
663
351
351
353
360
370
389
413
430
434
416
370
339
333
330
329
327
329
332
341
355
352
347
345
347
342
244
664
342
320
316
324
333
351
373
392
403
397
354
312
301
299
299
301
303
304
316
325
300
282
266
248
242
173
605
256
230
232
246
262
283
316
345
362
372
343
317
312
317
325
337
345
361
381
381
372
378
383
383
280
663
391
356
353
360
372
390
416
443
449
439
398
362
350
352
353
354
360
371
364
348
344
340
334
200
663
419
315
307
316
329
344
372
395
411
410
371
333
324
327
328
330
335
346
355
342
333
331
329
323
284
663
301
287
282
286
296
312
338
356
365
351
304
270
266
263
263
264
264
269
292
292
283
286
293
298
196
661
438
292
295
306
320
342
369
402
425
432
406
369
351
352
356
362
361
367
372
392
386
378
380
386
382
254
664
418
362
356
361
367
381
410
428
442
440
400
361
345
342
343
342
348
351
367
376
362
360
359
358
322
511
566
342
333
332
344
351
368
393
411
412
393
351
314
312
310
310
314
321
339
331
319
319
331
333
226
663
497
334
325
336
355
375
410
442
462
464
432
386
380
378
379
381
382
401
399
386
385
390
392
330
635
661
363
360
358
359
367
385
413
429
429
405
360
339
336
332
325
318
317
329
316
299
301
304
302
180
663
382
299
295
300
315
331
355
384
389
392
356
323
299
304
305
303
310
335
344
335
333
338
341
256
657
422
318
325
324
331
347
365
387
393
397
367
326
300
298
297
302
321
328
313
308
309
315
322
251
661
332
313
320
323
339
362
394
414
424
422
384
359
355
365
371
395
410
408
396
397
394
392
253
664
499
356
347
350
359
372
397
419
432
427
388
352
342
344
342
344
359
363
345
342
344
346
331
393
663
331
326
327
335
344
365
394
414
421
397
350
323
321
321
320
319
318
334
332
320
315
316
318
258
540
572
293
288
291
301
313
336
363
383
386
365
316
292
296
295
297
297
299
300
304
309
323
322
327
336
339
289
552
637
331
333
335
343
360
383
410
428
443
422
381
352
349
351
352
355
361
359
367
377
369
371
371
372
369
308
663
371
352
354
358
372
380
407
424
425
415
372
335
320
318
323
328
334
340
353
362
353
354
356
356
329
448
657
337
332
335
345
354
373
401
416
418
398
350
319
310
310
311
314
320
332
344
330
326
328
331
320
329
662
312
304
306
310
324
342
370
390
397
382
336
303
301
303
304
307
309
317
337
330
319
320
321
325
199
663
427
311
306
311
316
330
353
376
389
386
355
308
292
293
294
298
303
304
310
330
330
319
318
319
318
213
661
455
300
294
301
309
322
345
372
387
392
364
320
300
301
304
307
310
310
316
330
336
327
326
329
333
303
454
640
323
319
327
336
348
373
400
422
431
416
374
341
336
341
341
351
358
360
380
393
383
384
385
388
371
454
660
391
395
412
426
445
463
492
502
505
483
432
393
376
369
365
362
364
376
372
352
339
341
344
332
395
660
344
339
337
347
354
372
396
413
419
397
353
323
316
313
315
317
329
336
322
313
313
313
310
255
662
296
282
279
285
296
313
336
352
362
344
298
262
256
257
258
260
262
281
287
275
275
280
285
246
469
567
285
277
283
292
306
329
357
376
386
365
324
303
304
306
314
318
324
336
356
350
350
357
366
370
283
664
386
364
365
376
386
405
432
457
466
463
422
385
375
376
375
380
384
388
392
412
408
395
396
397
394
271
664
494
367
363
368
375
387
411
433
444
444
416
366
346
345
344
346
345
346
359
364
343
342
343
344
283
580
505
327
321
324
334
348
368
396
405
413
393
347
320
315
318
326
333
350
366
358
348
351
357
359
241
664
395
349
348
357
367
387
416
442
452
447
406
366
354
355
357
362
375
388
377
369
370
371
366
263
665
377
350
344
353
363
378
403
419
427
415
366
328
317
316
314
313
323
341
332
326
330
329
331
222
664
339
309
313
326
339
359
388
416
431
426
388
354
349
349
355
356
360
375
381
373
367
371
370
334
502
645
334
324
330
331
335
354
377
388
392
368
310
281
266
268
274
271
280
301
296
283
284
284
288
171
661
345
280
279
286
296
313
336
359
365
369
336
297
283
287
294
302
314
329
321
311
310
319
320
188
664
357
314
314
325
336
353
378
400
412
402
363
324
319
322
325
330
338
365
366
357
361
371
379
286
664
622
373
369
378
384
395
418
445
461
465
429
382
361
357
354
351
352
354
373
371
357
356
357
360
282
660
615
350
352
356
371
386
409
434
447
446
423
375
351
351
349
350
349
355
358
381
376
371
372
375
375
243
665
437
360
358
370
383
399
421
442
453
448
414
372
353
347
350
347
349
349
363
365
350
350
349
348
279
605
522
326
317
316
326
332
356
377
389
386
365
316
285
278
274
281
284
302
315
305
305
312
322
320
371
643
333
318
322
326
338
354
382
397
400
390
350
319
313
312
316
326
348
344
332
336
339
344
238
663
513
340
338
343
361
375
402
431
449
454
427
382
369
371
374
376
382
401
396
389
392
399
400
278
665
457
386
376
380
386
403
428
439
450
444
398
349
341
334
336
329
337
351
340
330
331
334
338
234
663
366
337
341
348
359
376
398
419
428
424
385
343
328
323
322
320
330
334
317
310
312
313
289
432
620
292
276
278
285
292
307
334
350
350
333
288
264
263
265
261
268
285
281
272
274
280
283
170
662
357
277
275
285
295
315
340
367
386
391
363
323
313
315
319
322
333
354
356
348
354
361
363
261
664
503
364
361
365
375
390
416
438
456
459
426
383
363
362
360
362
360
369
385
374
368
374
377
375
354
661
367
352
352
354
362
378
404
418
429
416
374
333
320
319
324
331
351
359
349
339
339
336
328
311
661
326
308
305
310
319
335
357
379
387
374
335
303
301
306
312
322
343
345
335
334
341
345
281
623
608
345
341
347
355
367
384
409
422
423
396
351
326
323
323
322
323
331
345
336
331
335
342
346
287
665
346
340
340
346
360
381
402
435
441
437
400
360
357
356
365
365
370
388
395
384
378
384
381
341
552
621
355
345
337
343
354
371
394
405
405
384
341
305
294
293
293
301
322
313
295
296
295
301
198
657
392
281
273
275
281
295
319
348
363
367
342
308
300
314
325
339
367
371
356
357
359
369
325
598
662
362
363
369
378
394
424
462
488
502
483
446
433
435
434
432
428
444
429
407
398
388
382
250
664
541
334
321
321
322
333
352
380
394
394
368
329
323
328
328
326
324
340
341
324
321
321
319
241
641
533
310
302
305
312
326
348
397
413
403
370
329
297
294
277
280
280
295
326
333
329
338
342
340
259
664
320
301
292
292
302
324
356
367
386
376
339
302
290
288
286
291
297
315
314
305
310
317
318
263
658
328
309
313
319
337
356
381
404
409
394
351
309
296
302
302
322
331
327
312
315
315
323
206
662
341
299
300
308
329
342
376
398
408
393
362
311
296
293
291
306
318
305
299
305
309
306
353
659
309
305
310
325
336
364
395
416
417
392
346
316
314
315
317
327
342
330
320
323
323
302
409
649
301
287
290
292
306
323
347
365
368
348
304
275
269
271
279
298
298
291
296
322
361
249
665
490
403
405
419
435
456
483
505
515
514
478
442
440
444
447
459
467
451
452
453
451
406
658
664
416
413
413
414
427
446
467
478
483
451
402
379
374
365
378
390
390
373
375
372
369
250
663
395
342
342
344
353
369
388
403
405
393
353
312
298
299
307
328
335
320
309
310
310
273
466
605
299
292
298
309
326
355
382
400
404
383
341
319
320
322
327
352
348
330
332
336
338
191
664
432
312
305
310
315
334
359
385
397
392
356
315
307
302
304
308
332
331
317
320
322
323
191
664
424
313
308
315
329
348
379
404
423
425
392
352
323
334
330
338
356
378
363
354
349
358
348
228
665
357
338
318
323
347
354
379
399
410
406
369
332
331
340
344
352
356
382
386
382
381
385
392
252
665
583
365
366
360
364
374
393
411
426
420
382
331
312
303
295
292
287
288
301
303
292
293
296
300
161
662
317
279
277
284
298
316
346
371
376
377
338
296
283
281
284
284
294
314
315
306
310
317
326
198
663
381
330
330
342
350
370
396
417
429
420
387
351
342
343
344
356
383
409
399
392
397
403
379
472
665
369
369
370
380
391
409
432
449
455
433
387
363
364
360
356
352
359
373
361
353
355
355
340
386
664
338
331
331
338
344
359
381
400
404
388
347
321
320
324
327
324
332
349
351
340
339
342
343
216
663
448
323
319
324
327
347
363
390
401
396
369
320
305
304
304
305
311
323
338
328
323
324
326
293
445
563
314
307
304
317
338
356
385
405
404
392
344
312
304
302
306
320
347
346
336
330
337
331
191
663
374
302
297
304
315
331
357
383
397
396
362
329
326
325
333
342
366
368
355
356
361
365
246
664
584
358
356
357
362
376
397
421
437
442
409
377
371
379
384
390
397
422
413
407
407
405
408
317
665
407
370
360
359
368
381
406
423
431
410
365
330
315
313
313
308
324
335
325
323
326
327
325
301
657
324
310
309
315
323
346
366
380
381
368
324
288
271
274
280
298
316
314
304
308
313
317
181
663
384
306
301
307
317
333
359
383
389
385
350
310
303
301
309
316
342
340
326
323
329
332
219
663
518
325
323
332
342
359
380
408
417
417
380
340
322
323
328
330
337
356
348
339
348
356
357
310
664
385
339
343
349
358
369
393
410
417
398
356
325
319
320
314
313
314
328
327
319
322
332
342
206
664
395
346
356
393
373
384
399
427
437
428
394
350
345
344
327
328
322
330
322
304
312
314
313
267
660
339
321
320
316
321
334
355
378
375
370
336
304
292
289
297
299
317
313
292
301
301
307
175
663
373
303
299
308
316
339
367
400
414
427
394
370
361
366
370
378
393
390
371
371
374
378
228
664
447
353
346
354
366
382
419
441
455
447
412
376
369
366
366
373
396
392
385
380
384
378
244
664
531
341
332
334
346
358
383
403
415
410
379
335
323
329
338
350
372
381
372
373
379
370
329
498
660
339
331
335
340
353
375
404
415
413
391
343
317
315
319
315
315
337
340
333
336
344
345
294
565
641
323
315
316
325
336
357
387
403
406
382
338
315
311
310
309
316
319
340
327
325
325
328
318
324
663
311
304
307
313
320
341
371
389
398
385
348
320
324
326
336
340
354
375
371
363
372
374
372
351
662
374
360
361
363
367
390
411
422
421
399
355
313
306
302
307
313
335
335
312
313
319
322
232
655
485
311
313
320
326
344
364
394
405
404
372
326
313
314
318
326
347
358
343
340
344
349
323
497
661
343
349
354
366
379
404
430
446
449
427
380
361
350
347
336
331
340
331
315
306
303
303
158
663
354
271
261
268
275
291
322
351
366
366
333
292
282
282
276
270
276
296
287
278
291
293
303
177
663
363
306
307
318
328
350
374
397
402
397
363
316
304
305
312
308
320
332
333
321
326
330
334
206
662
367
318
314
319
332
353
377
399
411
408
377
343
336
339
345
355
381
380
366
365
371
376
305
654
652
365
361
370
381
399
423
443
461
460
428
385
373
378
377
384
394
411
396
388
389
391
390
334
666
401
377
373
376
389
405
431
448
455
435
389
363
362
365
364
360
360
376
378
369
369
372
383
293
662
650
345
341
342
346
354
375
394
413
405
369
318
295
289
284
283
286
282
294
301
299
294
295
292
286
303
615
287
272
271
278
286
306
331
353
354
341
303
272
266
276
284
295
301
330
327
322
326
330
334
209
663
465
323
318
325
336
353
379
404
414
415
380
339
328
328
328
329
338
361
361
350
354
357
363
233
664
545
351
349
356
365
383
409
436
454
449
411
374
368
369
373
378
380
397
419
421
424
430
438
427
464
665
467
425
430
438
452
467
486
497
499
481
434
408
412
416
416
419
420
438
442
423
426
419
414
344
656
659
378
372
374
376
381
392
416
421
416
388
338
313
310
303
299
298
311
320
306
303
303
295
241
495
477
281
270
278
283
300
319
335
348
347
323
285
269
269
278
285
306
320
312
306
306
308
309
200
662
314
282
278
281
285
308
332
349
354
343
295
262
254
246
242
257
259
252
234
234
237
242
103
662
267
221
225
235
249
270
302
330
345
336
303
271
272
278
285
294
327
336
328
338
351
364
283
663
624
378
380
382
397
410
434
461
466
467
447
405
384
374
369
357
360
366
358
334
327
334
339
238
663
343
333
334
343
345
361
385
417
421
412
388
352
352
351
358
347
339
356
357
300
276
302
278
186
559
310
231
235
257
286
308
339
372
399
412
398
349
345
350
348
358
365
391
386
372
373
373
374
267
665
610
385
384
397
412
426
443
462
475
472
441
401
393
385
379
374
378
383
372
364
361
369
369
252
665
395
350
341
340
346
356
382
399
411
400
365
328
316
312
302
289
290
302
284
262
273
268
273
142
663
284
264
270
280
293
319
356
377
384
393
354
327
322
325
329
338
338
362
354
350
350
356
351
299
664
343
342
346
358
372
391
418
442
454
445
410
382
391
392
396
404
427
427
422
421
433
437
411
590
663
424
433
431
438
445
458
477
485
480
456
404
373
362
352
344
349
368
363
338
336
330
343
243
660
423
322
326
329
343
352
380
393
404
399
378
337
323
321
322
334
349
348
338
338
341
341
309
519
629
330
327
333
340
353
379
404
418
422
401
358
338
341
342
339
354
365
357
352
352
357
353
274
664
349
337
337
346
357
370
400
410
416
408
363
332
329
330
335
342
355
358
343
339
342
341
235
662
450
326
324
333
344
355
379
399
409
408
379
341
327
329
330
336
354
360
340
345
343
354
293
553
521
328
322
327
328
345
372
386
402
397
378
341
310
303
308
319
331
331
308
316
310
324
239
626
411
311
313
316
335
349
384
402
412
419
392
364
344
348
354
376
388
381
367
370
371
371
259
664
405
363
364
366
384
395
419
436
436
423
386
353
347
343
354
371
376
353
353
354
351
277
643
597
341
333
338
343
361
387
412
426
418
395
350
335
334
338
350
370
366
356
354
359
359
234
664
503
336
336
345
347
367
390
414
422
414
377
340
329
330
327
328
339
344
331
328
324
326
301
452
655
310
306
310
312
324
343
370
379
385
365
328
308
315
313
311
318
327
342
345
342
346
349
333
272
661
320
300
298
307
328
353
390
412
430
411
376
341
335
337
349
352
369
384
380
374
380
377
350
513
662
374
375
381
384
398
417
446
458
458
440
401
379
381
382
386
386
403
404
393
386
389
385
286
664
602
344
337
337
338
351
369
387
401
406
378
341
330
332
327
323
326
347
341
327
328
329
324
193
663
338
307
303
314
320
336
358
376
377
365
322
288
274
270
269
268
274
287
269
254
250
249
250
193
572
255
235
241
259
275
300
325
342
342
329
289
245
234
243
244
266
300
297
296
308
311
315
207
658
351
310
303
294
299
331
374
387
397
390
371
343
343
352
346
359
389
387
379
384
388
396
290
665
559
404
394
399
404
423
439
460
464
458
425
390
386
375
373
382
401
395
381
383
372
377
256
662
453
348
340
343
350
358
385
396
410
404
368
336
321
319
321
318
330
341
330
332
331
327
304
412
578
309
292
302
301
311
335
354
357
359
337
293
270
262
269
276
286
310
310
298
296
276
287
173
659
353
265
269
276
290
304
326
356
370
368
330
297
291
284
285
286
308
316
311
313
319
319
305
388
632
308
310
311
317
336
357
385
407
411
392
352
332
334
337
341
353
377
392
389
394
388
394
324
615
615
377
368
390
393
413
443
472
491
490
464
436
423
429
445
456
477
496
497
492
499
501
503
355
665
657
456
448
457
457
472
483
501
501
486
438
396
378
374
373
374
386
392
374
361
363
367
347
468
663
343
337
342
337
351
370
395
407
413
388
339
319
313
314
317
322
327
350
351
343
349
354
353
222
664
392
336
322
324
338
347
373
385
395
383
351
313
303
305
309
310
318
344
352
339
341
349
354
315
536
608
334
325
327
336
348
366
386
388
377
356
311
287
284
283
290
297
322
325
305
300
302
305
271
467
604
300
293
302
317
334
360
394
406
411
387
350
333
333
334
342
348
379
376
362
362
364
370
290
661
634
348
350
350
359
374
398
421
430
426
391
345
325
324
326
329
333
344
361
353
343
345
346
345
235
664
357
325
321
333
343
363
388
411
419
406
366
333
323
327
328
331
335
339
360
355
345
348
356
357
219
664
462
347
341
350
358
373
399
420
430
423
383
343
328
327
326
327
328
330
334
353
341
337
335
336
333
263
664
329
308
305
310
322
342
369
385
390
377
332
299
292
296
299
301
307
310
316
333
338
330
329
331
330
275
558
613
312
309
311
319
332
352
380
393
399
378
332
313
315
316
323
325
329
335
340
361
353
347
350
351
348
228
663
371
331
325
335
342
357
384
404
408
398
365
317
301
297
296
304
304
313
333
320
310
309
312
313
193
662
359
302
302
307
317
339
363
385
393
385
349
313
300
297
303
305
315
338
342
326
328
336
339
284
583
612
333
331
340
347
363
387
412
425
428
405
364
351
347
348
353
355
363
382
377
366
365
368
368
241
663
518
347
342
351
364
383
408
430
445
444
408
370
358
360
363
367
371
374
387
399
388
386
389
391
375
434
664
369
371
367
372
383
398
422
440
442
421
378
351
348
349
353
356
356
360
374
382
373
372
375
378
347
507
662
361
364
370
381
398
424
453
472
478
458
412
387
380
382
385
388
390
397
413
419
411
404
409
405
352
609
659
368
361
364
366
369
391
407
420
410
385
333
304
299
295
298
298
299
307
326
315
310
310
317
317
215
661
324
300
301
308
320
340
368
390
399
395
358
318
311
312
317
325
334
353
360
346
343
347
353
333
442
660
339
333
336
345
354
371
395
410
411
395
352
330
327
320
322
319
313
327
326
317
320
324
329
272
589
597
322
316
323
333
346
369
402
418
430
412
374
360
362
360
364
362
365
373
383
373
367
369
372
371
310
664
364
342
336
339
348
365
389
413
424
415
378
346
341
344
345
347
350
355
367
383
382
379
379
381
377
339
664
364
350
347
350
362
372
397
412
416
402
362
324
317
317
311
314
317
321
328
335
316
305
296
290
274
310
568
267
245
242
247
244
256
288
310
322
312
275
246
246
251
258
269
280
304
318
314
315
315
314
300
332
623
313
300
306
317
328
347
367
376
378
361
317
289
279
276
280
284
301
315
308
303
308
315
318
193
664
368
321
324
335
349
371
403
427
437
431
394
356
344
342
339
340
344
358
356
343
343
348
347
265
657
561
337
334
341
355
369
397
424
439
443
419
378
363
363
361
360
352
349
364
358
343
340
342
341
274
603
568
315
310
314
323
338
359
384
401
407
388
350
332
336
344
351
355
360
371
393
402
392
398
404
413
343
660
654
394
395
393
413
418
439
464
478
478
455
407
379
371
371
370
370
370
379
377
361
356
350
345
328
360
626
320
299
298
307
317
334
356
369
374
356
313
281
277
278
285
291
308
329
320
311
312
317
324
205
663
422
333
333
345
354
372
397
422
432
431
395
354
347
347
350
352
361
376
367
352
349
350
353
276
650
571
334
329
333
340
349
368
391
403
404
378
334
316
314
312
310
307
312
328
318
306
305
305
302
172
663
336
282
278
286
296
312
335
357
368
366
334
295
286
287
290
294
298
306
332
335
331
342
352
359
264
664
531
372
370
385
402
422
446
474
493
498
467
430
411
411
409
410
413
420
428
435
422
418
417
418
373
609
642
390
388
389
394
402
425
441
457
457
431
378
340
339
339
342
344
357
361
350
345
346
350
349
294
662
354
335
333
342
352
378
400
416
419
404
361
329
320
320
321
330
350
347
334
331
333
336
295
516
605
314
309
308
319
328
350
378
396
401
380
341
321
322
321
322
327
339
346
334
333
339
343
335
366
662
326
322
326
334
347
366
390
407
410
391
343
314
309
307
309
312
315
331
336
326
326
330
330
298
477
611
312
307
310
318
329
350
377
390
397
382
338
315
311
309
313
316
318
327
336
327
323
329
329
322
307
643
318
305
305
317
321
338
361
376
381
366
320
285
274
271
273
275
285
299
299
289
295
297
300
209
648
395
294
291
300
315
331
358
388
397
400
376
336
320
321
324
333
357
362
353
351
348
354
355
283
664
354
334
334
339
353
372
401
416
418
400
352
312
310
303
308
311
332
330
308
308
304
302
241
540
492
276
267
266
278
291
312
337
351
353
322
279
258
252
258
264
270
289
303
300
299
311
320
325
209
664
355
320
326
333
