362
364
368
372
374
253
655
663
316
319
320
323
326
336
363
389
409
408
374
349
352
350
349
351
360
375
367
377
378
373
160
664
432
329
326
328
324
325
341
349
406
388
413
322
328
335
337
331
345
368
364
368
368
364
105
664
409
335
323
324
319
319
332
355
376
389
375
348
345
351
351
351
360
372
365
370
370
366
106
664
431
322
312
310
305
307
320
339
362
379
369
348
351
353
349
348
374
371
371
372
372
228
661
664
306
308
303
302
298
303
317
340
362
368
347
337
342
340
337
341
363
353
361
361
359
51
665
555
304
295
293
290
291
302
322
343
361
351
322
326
329
327
328
332
353
346
353
354
356
87
664
627
296
288
285
282
279
284
304
323
337
326
285
273
273
268
262
265
271
278
264
267
263
257
0
663
246
203
190
188
186
187
200
226
247
263
250
214
215
219
219
222
232
247
259
260
274
279
280
48
663
284
257
254
260
266
270
287
315
343
366
354
323
327
334
338
345
355
370
387
379
396
397
402
152
664
653
367
369
372
375
373
388
416
443
463
453
412
399
405
403
404
412
418
430
430
425
429
426
359
440
664
395
368
360
359
359
357
372
391
408
417
397
376
373
371
370
371
378
398
392
387
390
378
261
643
663
318
319
314
309
307
313
322
340
357
365
354
342
342
337
333
333
340
345
327
326
321
312
47
664
371
270
264
265
264
260
260
272
288
308
312
309
317
326
323
322
333
357
346
346
349
348
296
465
664
299
291
287
289
283
289
298
310
330
344
331
314
296
318
344
337
316
336
345
338
341
344
331
191
664
326
314
309
298
299
302
311
280
341
350
338
332
347
343
345
354
363
372
384
379
390
385
393
294
625
663
353
342
316
332
298
313
314
333
356
382
368
344
350
342
356
361
370
376
393
388
396
399
394
94
664
565
300
278
290
291
295
270
356
367
387
371
317
286
287
308
313
324
329
335
328
344
347
341
89
663
450
306
298
292
247
282
244
291
299
314
307
264
245
243
245
254
262
278
287
310
318
327
319
168
662
280
271
268
259
260
263
282
304
328
345
323
284
279
287
298
314
333
337
340
346
348
348
75
663
388
313
304
303
308
315
330
357
386
414
402
369
357
362
361
366
386
386
387
390
390
380
120
664
429
341
332
331
329
333
345
368
397
416
409
380
373
374
368
367
388
385
385
388
386
348
274
663
361
334
325
325
321
320
328
349
374
387
376
354
353
352
346
347
368
363
365
364
363
214
653
662
297
299
291
289
288
290
306
329
352
360
338
327
332
331
329
337
350
343
349
354
352
64
664
629
305
296
294
287
288
294
318
338
358
359
333
332
334
332
329
352
350
354
354
356
284
464
664
302
299
291
287
284
285
305
326
347
356
329
319
325
325
317
338
339
342
344
344
337
129
664
361
296
283
282
280
286
300
319
341
356
336
315
319
319
321
328
349
345
355
359
365
75
664
576
317
312
312
313
313
322
344
368
387
377
347
346
352
349
344
363
372
375
382
385
374
190
664
397
347
338
338
337
338
350
376
396
408
387
368
370
371
370
374
392
390
391
391
391
365
221
664
388
329
318
315
309
313
317
330
349
359
343
324
330
323
320
321
341
332
329
327
322
122
663
660
258
254
248
245
244
244
257
275
292
297
288
286
291
288
290
306
318
309
319
317
313
38
665
382
280
268
270
272
273
286
305
329
344
341
330
334
341
340
343
363
370
367
375
372
362
187
664
427
328
320
316
317
318
333
350
374
390
372
358
363
363
360
363
373
391
376
381
379
379
71
664
567
319
312
309
309
310
321
339
363
377
365
338
342
343
343
343
353
364
372
361
368
366
362
87
665
440
311
300
301
297
304
317
335
356
370
354
323
321
324
319
323
330
342
345
334
338
338
331
53
664
336
273
262
259
258
260
268
289
309
324
307
272
271
275
274
277
290
298
311
300
311
312
313
23
664
405
280
277
283
288
293
304
328
354
378
368
333
334
344
354
358
370
377
388
378
391
392
399
86
665
627
365
363
366
371
369
374
382
420
433
438
416
417
417
408
408
412
425
406
407
391
384
147
664
650
317
310
306
299
292
283
291
298
312
318
309
306
310
302
296
300
333
317
313
306
302
155
663
635
274
265
258
256
246
247
247
259
276
295
299
303
312
314
309
219
307
364
281
276
313
230
495
662
299
300
290
296
294
299
309
319
353
379
374
380
389
391
391
346
402
409
367
387
374
369
172
662
570
341
330
326
322
313
322
348
369
396
396
373
355
345
341
328
271
316
302
321
327
339
282
358
651
355
371
334
348
356
364
375
410
441
463
426
405
404
404
404
398
403
388
391
390
390
273
570
658
354
349
343
338
333
341
356
381
402
402
353
322
319
318
320
328
331
326
332
330
327
43
663
347
281
269
266
262
262
275
304
332
356
338
301
291
291
288
294
308
307
311
314
316
257
303
662
276
280
277
274
276
279
298
328
356
370
347
328
330
327
332
341
356
349
362
363
367
92
664
591
328
323
318
320
323
332
354
378
401
392
361
360
364
361
356
374
374
379
381
384
315
438
663
327
327
321
318
314
316
332
354
377
382
356
336
342
337
333
335
350
339
348
344
349
65
664
535
295
287
282
279
277
282
301
321
338
329
303
308
309
306
308
323
316
319
320
318
113
663
628
274
263
258
256
255
263
285
308
328
327
306
302
303
300
301
328
329
338
344
352
264
530
663
306
312
306
308
303
303
314
335
357
367
357
366
375
375
374
378
401
387
396
397
396
144
663
658
337
336
327
326
323
327
341
366
384
383
362
367
373
378
378
387
404
401
405
406
408
228
663
662
340
341
333
330
332
344
359
385
405
404
371
361
362
365
362
369
386
374
380
379
374
140
663
649
334
333
327
326
323
326
338
359
380
377
356
353
354
350
349
352
368
357
360
355
350
144
662
639
290
281
274
270
266
270
283
303
323
319
292
287
287
283
286
291
298
314
302
309
305
304
0
663
368
257
250
249
250
254
265
288
314
332
319
297
302
308
308
310
321
328
337
352
343
350
351
347
78
664
410
309
304
304
302
308
325
350
373
391
373
343
347
352
353
357
366
375
377
397
378
390
384
388
108
664
639
329
326
327
326
330
342
363
386
403
394
359
356
361
358
356
365
374
382
382
396
379
383
378
378
104
663
620
317
309
306
302
302
310
327
347
367
356
320
309
315
311
308
311
318
319
322
335
316
321
317
312
39
664
500
265
255
257
259
261
273
296
319
339
334
303
295
303
303
304
316
327
336
340
355
343
354
349
351
69
664
575
313
308
310
312
314
326
350
376
397
390
356
353
361
355
355
362
371
376
377
391
378
384
385
383
151
664
660
331
330
327
327
329
338
360
385
405
402
368
357
366
365
363
368
373
380
384
386
381
384
381
379
91
664
485
324
315
315
315
317
328
349
375
391
372
335
335
337
333
333
339
348
353
365
354
361
360
357
105
664
608
305
300
300
302
301
309
330
354
373
363
329
324
331
328
327
336
341
348
359
349
357
356
356
99
664
577
311
306
306
306
304
315
337
359
379
366
329
323
331
328
321
327
336
348
347
348
355
351
322
203
663
309
296
287
288
283
288
303
332
351
364
345
329
333
335
337
336
334
354
351
348
347
346
333
157
665
350
312
303
303
305
306
316
338
354
374
369
360
365
368
362
369
374
386
379
384
379
379
154
664
660
321
321
316
315
312
315
324
339
358
365
352
358
365
362
357
360
383
371
366
363
361
269
509
663
286
286
278
268
262
256
264
278
297
302
290
286
288
282
273
265
286
277
279
279
279
142
585
660
222
219
214
216
214
219
238
261
286
293
274
278
288
286
287
305
315
315
329
335
337
37
664
463
300
293
293
296
302
315
338
364
381
367
349
362
369
366
372
389
385
396
397
401
114
664
660
344
347
344
342
344
350
374
397
413
396
373
382
387
383
382
397
393
401
402
402
185
664
663
339
341
336
333
331
339
357
378
393
386
361
366
370
366
361
377
372
377
378
378
208
663
662
314
318
311
305
303
305
321
339
354
348
319
317
327
321
314
326
325
331
334
334
273
407
663
282
287
279
276
274
273
289
307
325
332
313
312
322
319
319
321
342
333
340
343
339
81
664
619
288
279
274
272
269
274
287
305
322
317
308
314
321
317
315
336
338
342
344
344
291
378
663
294
294
287
286
285
288
299
320
343
349
334
335
343
345
343
347
369
367
367
372
372
296
495
663
315
322
313
311
312
313
329
347
370
370
347
342
351
351
353
356
362
380
376
380
382
382
272
637
663
315
325
319
318
315
325
341
365
388
390
357
343
349
348
349
351
355
377
369
379
377
378
195
663
660
324
323
321
321
321
332
352
374
395
386
353
346
349
349
350
353
356
374
366
374
376
378
213
662
658
325
323
319
316
319
327
350
373
392
387
353
342
346
346
346
353
362
364
381
369
380
378
377
153
663
633
333
325
321
323
321
331
350
372
392
386
360
353
358
354
355
360
370
376
384
372
377
372
365
87
664
418
316
304
304
305
302
315
334
354
369
350
327
331
329
323
322
325
328
333
334
318
321
318
310
14
664
309
240
224
221
214
210
217
233
254
268
248
217
219
222
218
217
223
230
233
249
239
246
246
248
109
551
534
215
209
209
213
219
230
252
282
308
314
288
279
292
297
301
309
323
336
346
359
369
368
377
380
367
244
663
381
359
359
364
368
376
395
421
448
459
440
410
413
416
413
419
426
431
436
448
444
443
443
439
415
292
664
438
385
379
377
376
376
391
412
433
442
415
379
379
378
374
370
373
382
385
392
383
390
385
382
184
663
637
326
321
320
317
316
323
349
376
400
389
343
324
328
325
320
326
328
343
341
345
344
346
287
364
663
292
297
293
292
293
300
321
348
374
378
344
319
324
323
318
319
321
337
335
340
344
341
290
373
662
289
294
291
292
290
293
313
336
358
364
332
314
323
322
314
315
324
336
338
339
350
349
353
79
663
417
310
305
304
307
310
329
360
385
393
379
345
347
351
351
352
357
368
387
377
386
381
388
278
556
662
332
339
331
322
324
326
339
355
371
375
358
345
353
346
340
356
349
364
347
350
338
335
193
652
654
271
263
269
274
260
272
293
297
309
309
295
295
307
309
304
307
321
329
323
333
328
339
67
663
348
303
289
280
293
286
288
305
325
334
328
322
335
339
338
333
342
355
361
356
366
367
369
108
663
435
336
328
329
331
335
349
372
394
411
398
371
378
384
382
379
382
386
403
396
407
403
405
374
310
663
366
347
340
333
334
336
350
366
384
387
364
346
355
358
353
351
355
362
371
358
363
360
354
130
664
633
300
296
288
290
289
294
311
329
348
347
322
320
328
329
327
335
340
356
354
350
355
351
350
48
663
455
308
298
298
297
299
308
327
345
364
357
336
341
346
342
342
348
353
363
367
356
361
358
354
137
664
649
305
300
299
293
293
302
318
338
355
357
329
324
334
331
328
336
340
342
357
348
354
350
344
326
185
664
318
301
293
294
293
298
311
336
359
369
351
325
332
335
335
335
344
351
355
368
353
360
359
357
209
661
661
307
308
303
305
302
306
325
350
370
373
341
327
335
335
334
336
346
352
357
368
357
367
363
363
301
387
663
313
318
313
315
313
318
337
359
380
388
362
337
342
344
339
339
347
354
358
366
357
364
363
361
187
663
651
311
309
305
304
302
307
327
350
368
363
330
310
316
315
311
309
319
320
331
322
329
326
326
274
311
663
280
284
282
279
282
284
304
331
355
367
344
318
323
323
323
328
335
338
356
350
355
352
350
325
185
664
317
313
309
309
309
315
334
359
387
398
379
349
356
356
351
345
348
357
370
367
383
381
385
195
664
661
342
344
344
340
336
339
352
375
394
390
369
367
376
373
368
367
376
381
377
384
384
381
138
664
567
335
330
328
327
322
334
354
378
395
387
353
351
362
355
353
357
373
369
383
384
384
337
358
663
332
337
332
332
329
332
350
373
390
397
363
343
352
353
348
349
359
363
356
364
366
365
179
664
626
323
317
319
314
314
321
339
361
383
376
348
342
346
345
343
349
356
370
357
366
361
363
172
664
633
311
307
304
303
302
308
328
351
369
367
335
325
330
329
329
336
340
358
345
356
357
358
194
662
648
315
310
308
308
305
314
332
355
377
374
344
335
340
339
337
343
350
351
364
351
366
366
365
259
576
662
317
323
322
321
317
321
340
365
387
390
359
339
347
350
348
352
357
367
365
382
366
377
376
372
273
563
662
321
323
323
325
325
333
356
382
401
405
372
346
352
351
346
351
353
360
372
367
368
369
367
353
146
664
356
319
311
315
312
317
330
350
370
381
364
341
347
351
353
353
359
361
381
370
370
370
367
351
154
664
363
319
312
310
308
310
321
342
365
377
361
337
347
349
346
345
347
362
360
355
361
359
357
67
664
539
311
303
299
300
300
305
325
345
361
349
322
331
336
333
332
335
342
358
348
359
360
360
305
383
664
304
310
306
304
304
305
323
344
364
370
342
324
338
338
334
336
340
355
356
354
363
364
365
109
664
552
320
311
310
311
318
322
343
369
384
369
334
336
343
343
341
343
350
363
357
362
364
359
351
109
665
362
317
307
310
308
314
328
350
370
382
368
349
350
352
358
356
365
383
386
382
382
384
382
98
665
657
337
329
330
326
327
331
345
361
373
372
359
358
362
363
357
350
377
368
367
366
363
351
102
665
412
304
292
293
290
294
299
317
335
347
340
326
337
340
339
334
336
358
347
350
351
345
309
258
665
313
283
276
273
272
271
279
291
312
319
302
289
299
297
291
287
287
308
292
295
295
287
261
132
664
228
214
207
206
201
203
212
231
245
258
244
234
240
245
244
248
249
271
274
273
276
279
281
61
664
300
255
252
256
255
255
266
286
311
335
328
317
325
329
327
325
341
351
346
354
358
359
112
664
660
305
305
307
307
307
313
331
352
375
372
349
347
351
349
343
349
363
355
364
368
367
177
664
663
308
316
313
315
317
323
340
363
382
385
363
359
367
364
365
370
383
373
382
380
382
185
664
662
332
335
327
326
320
325
338
357
377
373
350
347
354
351
339
356
352
354
354
358
349
64
665
401
303
293
289
289
288
294
317
339
358
343
330
334
338
335
333
348
348
362
366
367
207
663
662
319
322
320
318
313
320
338
362
383
380
354
355
363
357
354
369
366
370
378
380
358
192
664
377
329
318
314
311
308
314
334
351
362
352
347
353
349
347
345
364
357
365
363
359
117
664
658
308
290
286
282
267
279
312
300
321
328
306
304
311
306
304
310
312
307
308
307
303
16
664
317
262
250
251
254
253
253
273
299
316
305
296
310
312
310
312
319
337
334
342
343
346
66
664
459
316
304
301
299
302
310
329
349
366
354
330
336
345
341
341
350
358
375
365
379
381
384
145
664
620
347
342
344
345
344
351
371
393
412
404
374
373
380
380
381
383
390
408
396
407
405
404
216
663
660
349
347
346
342
338
346
361
379
398
392
364
356
358
353
347
352
364
365
355
358
359
345
79
664
354
287
270
260
261
261
271
287
306
318
303
278
281
283
271
273
276
291
281
288
293
288
104
662
540
237
237
232
237
242
249
275
297
324
326
304
309
316
318
317
327
343
348
352
362
363
368
101
664
432
343
339
340
339
346
356
379
400
422
408
384
392
390
385
390
395
409
399
407
404
405
249
663
663
354
357
355
352
348
352
369
386
406
407
378
368
368
367
360
361
378
376
376
374
373
298
455
663
315
324
318
315
309
308
324
343
363
365
335
317
319
316
314
317
337
331
332
335
331
291
300
663
265
268
262
259
256
254
263
280
302
308
284
269
274
277
274
281
292
301
302
306
313
315
37
664
358
296
291
289
292
298
315
344
371
396
382
349
350
355
358
362
366
388
387
391
394
393
374
193
664
386
350
344
341
340
340
354
376
398
413
396
363
360
365
361
367
377
385
392
381
389
388
385
93
664
586
331
325
324
322
324
333
352
374
391
381
342
342
344
341
342
347
359
364
357
367
367
364
105
664
549
314
308
308
310
311
319
339
360
380
368
331
321
325
324
321
324
330
336
347
333
346
348
352
175
663
652
311
314
314
319
315
318
335
354
373
372
337
321
325
325
324
329
334
341
335
329
336
334
332
55
663
351
279
272
272
272
267
276
297
317
334
318
279
273
278
280
280
285
294
304
310
306
317
319
320
39
664
390
293
287
293
297
300
318
344
368
390
383
344
332
341
343
349
355
362
379
378
381
386
389
360
257
665
391
347
340
337
336
343
361
384
411
425
404
379
377
376
373
376
378
383
392
381
390
391
390
130
664
655
332
324
318
313
311
315
331
350
366
358
327
319
325
320
318
324
327
330
342
331
342
339
339
180
662
659
288
287
287
291
293
296
314
331
352
357
327
319
330
330
328
338
350
358
365
376
366
373
374
373
269
572
663
321
330
331
337
335
336
351
364
387
397
368
347
357
354
353
355
363
372
376
380
393
379
382
382
377
255
594
661
321
324
321
325
326
333
355
380
403
406
375
346
343
343
339
344
352
360
366
379
368
371
369
371
139
664
656
303
299
297
300
306
310
335
355
376
373
339
324
329
329
329
332
338
347
361
364
358
361
357
356
51
664
530
303
297
296
296
297
307
331
352
369
359
329
325
332
331
328
332
337
344
360
354
355
356
355
352
86
664
415
306
299
294
294
294
305
329
352
372
357
328
329
336
334
331
337
345
349
354
358
372
356
361
362
360
231
640
663
300
308
308
309
307
309
325
347
365
374
348
326
335
337
335
338
343
350
357
361
366
372
377
379
360
365
362
356
104
664
395
302
297
296
293
289
298
320
342
362
350
310
304
311
305
296
298
304
307
313
320
317
313
316
312
305
30
664
399
265
258
260
263
262
265
286
310
329
326
289
283
298
299
300
306
315
326
329
334
338
340
352
336
347
350
356
93
664
536
335
330
332
329
327
335
363
394
420
425
393
372
375
373
372
371
372
380
379
387
402
390
395
393
389
259
633
663
320
322
318
319
321
327
347
374
396
406
380
350
349
351
343
345
347
354
360
366
374
361
368
366
364
169
664
661
304
305
305
306
305
309
326
352
375
376
348
332
341
341
337
339
345
354
357
359
365
376
363
369
367
365
276
512
663
312
318
316
318
316
314
326
349
371
381
358
330
336
341
337
330
333
338
342
345
348
351
353
358
334
336
331
325
156
662
615
271
265
262
256
250
251
269
291
315
323
290
258
265
267
263
262
269
276
286
292
297
309
302
307
310
311
291
161
663
282
284
287
293
297
302
319
348
375
395
377
341
339
346
346
346
354
363
376
385
390
397
402
410
401
399
398
399
356
360
664
366
362
362
365
363
361
375
399
424
439
419
381
374
380
379
376
381
388
394
399
402
410
396
403
398
398
272
632
662
336
346
344
342
340
349
365
390
413
418
383
351
351
351
347
350
352
359
365
369
380
371
368
367
363
344
161
664
336
305
301
303
304
308
321
347
373
389
372
332
327
334
330
322
325
331
340
348
359
354
362
364
364
225
657
662
299
303
301
301
299
301
318
343
365
371
340
316
322
325
320
320
325
330
337
346
358
350
351
348
347
340
95
664
344
297
293
292
291
284
294
314
335
350
335
297
290
303
301
296
298
305
315
320
329
338
349
334
341
342
341
138
663
637
307
303
304
306
309
315
339
360
383
392
371
354
366
371
372
370
372
373
380
390
393
379
381
378
377
134
664
659
321
321
320
321
322
326
344
361
380
386
365
354
359
362
361
361
364
372
383
386
377
379
373
371
179
663
663
315
313
312
309
308
311
326
344
367
372
350
336
347
347
346
346
351
356
361
364
380
367
369
365
364
351
126
664
410
309
301
300
301
300
308
327
347
366
356
330
326
334
334
332
332
338
341
343
343
346
350
359
345
342
337
332
294
256
664
279
274
272
270
271
270
278
296
317
335
326
299
297
306
304
301
308
318
326
332
335
345
352
364
342
353
351
351
195
663
661
305
312
312
315
316
320
339
363
386
402
380
350
358
365
362
361
367
378
382
387
393
400
390
393
394
389
324
409
664
344
339
333
331
334
339
352
376
401
415
399
367
367
369
363
362
368
373
377
381
392
378
384
380
375
302
440
664
328
310
306
307
309
316
333
354
376
390
376
344
344
347
345
341
345
350
358
379
367
369
366
362
350
131
665
398
300
292
292
294
296
305
326
348
367
359
328
326
336
335
332
334
345
354
367
362
359
359
360
358
118
664
657
300
299
297
296
294
299
317
334
356
362
340
328
341
343
333
337
344
349
349
361
352
365
366
364
348
202
664
335
319
313
313
308
307
330
338
362
387
377
341
356
359
372
358
361
363
369
384
364
362
369
376
383
168
663
540
347
339
340
342
345
349
364
381
395
396
384
353
367
371
381
390
393
398
404
388
389
387
390
311
412
664
334
328
311
307
300
298
297
306
330
342
338
321
320
318
312
303
306
322
318
308
309
306
299
106
663
645
249
240
237
241
246
251
265
281
298
308
316
303
318
335
318
321
320
341
349
335
330
339
344
77
665
607
307
295
297
303
289
289
304
329
343
358
351
351
364
358
359
365
349
377
351
366
362
353
333
200
665
373
312
295
298
296
295
297
317
333
356
364
354
357
364
376
364
365
365
381
371
380
374
376
360
176
665
457
315
308
303
311
308
304
322
328
351
350
339
347
349
336
343
339
352
355
372
348
348
339
339
263
476
664
264
264
263
259
256
257
262
270
289
298
300
293
306
315
301
317
314
323
340
362
348
339
333
335
338
80
665
487
285
265
285
281
260
276
298
303
316
328
337
353
378
337
370
389
383
392
416
399
386
383
382
376
124
665
570
339
340
351
333
346
348
369
387
408
418
399
396
401
405
403
409
414
416
432
421
417
409
410
399
129
665
628
335
325
321
318
310
311
320
340
360
371
345
326
320
304
297
291
296
309
316
332
321
325
320
320
147
661
561
269
259
253
251
250
253
273
294
320
329
310
282
281
281
280
289
298
306
324
326
330
334
337
335
113
660
397
317
314
310
306
307
316
341
366
391
391
353
325
322
327
330
336
355
372
369
372
375
372
367
150
646
442
344
342
340
334
329
343
367
396
423
426
384
356
350
349
353
356
367
374
365
376
374
373
311
366
601
351
355
349
342
336
342
362
386
407
423
390
346
336
335
329
331
341
343
339
349
356
349
235
509
528
324
322
319
313
308
317
340
370
401
401
369
337
325
332
336
342
353
351
352
354
357
349
115
657
381
331
326
319
314
317
334
359
387
409
396
355
339
337
338
340
349
356
352
365
366
364
235
563
535
336
334
330
326
323
331
354
380
402
404
369
336
337
336
335
336
352
346
353
354
354
346
159
645
322
310
295
293
283
282
300
324
354
376
356
317
306
306
305
307
312
327
322
338
334
333
281
348
557
313
316
310
304
299
308
330
357
380
390
364
328
322
321
318
321
329
343
346
353
359
356
357
123
659
393
328
331
325
318
320
333
360
386
410
403
361
342
339
337
337
344
351
363
361
368
367
364
360
124
659
380
324
313
305
296
289
295
314
336
354
347
305
280
276
271
270
277
283
287
299
297
298
298
296
291
74
622
305
280
279
279
276
277
292
319
351
376
375
341
328
330
334
338
349
360
378
388
393
400
401
401
197
663
510
383
381
382
379
373
381
401
427
452
452
415
391
389
385
379
384
391
403
406
402
407
403
400
196
662
505
368
361
357
349
341
344
364
389
413
413
381
359
355
351
347
347
352
364
363
360
361
357
352
107
661
380
317
306
301
292
283
290
309
335
356
354
320
309
311
309
310
320
325
338
326
328
327
323
299
180
663
292
292
290
289
281
275
286
305
316
335
320
295
294
300
307
307
315
340
339
339
337
332
329
35
665
519
303
294
290
289
293
303
324
342
357
371
356
349
348
343
334
331
337
346
336
339
352
357
150
664
662
312
310
305
295
294
297
318
343
367
390
385
380
385
384
380
384
403
405
395
399
393
390
108
665
660
315
317
316
316
312
318
326
335
347
350
338
339
349
353
356
365
375
388
373
375
369
364
165
664
663
309
318
319
322
321
324
333
343
355
355
336
330
345
351
353
357
360
376
351
351
340
331
280
276
664
276
284
279
268
263
254
267
278
299
313
302
286
300
303
300
299
304
319
316
316
321
323
324
65
663
409
282
273
273
274
277
291
314
338
352
354
325
320
331
324
331
332
336
341
323
315
310
315
313
43
664
397
319
308
302
294
288
298
324
353
374
369
341
337
349
352
345
348
349
356
346
356
361
361
266
548
663
331
334
326
324
320
329
335
346
363
368
352
339
349
361
374
382
389
403
389
387
381
382
377
119
664
407
364
363
356
353
348
347
355
369
378
366
331
327
336
338
345
359
378
377
379
384
387
385
135
664
594
346
339
332
330
326
332
347
368
385
378
358
354
362
371
363
376
389
377
377
367
361
337
202
665
389
322
313
314
317
314
322
337
351
361
356
334
337
342
341
341
362
357
358
357
351
343
86
665
377
291
276
275
272
279
291
315
336
351
341
313
313
315
315
311
335
332
338
341
342
337
114
664
366
306
300
299
295
297
308
331
347
364
349
325
331
337
334
331
348
340
346
345
348
247
607
663
294
299
292
287
286
294
309
326
346
347
319
309
318
318
315
324
327
326
333
338
342
84
664
507
314
311
311
314
315
322
337
354
363
351
323
325
330
330
323
341
338
343
348
346
339
161
664
306
298
288
285
287
285
301
321
336
344
317
290
292
294
293
294
302
309
301
309
308
307
60
664
442
274
268
273
278
278
287
304
322
342
340
313
313
321
322
329
331
357
348
365
370
375
298
476
661
339
345
344
346
345
349
368
387
406
411
383
366
379
386
384
390
404
403
407
408
403
399
165
664
411
361
349
342
334
334
342
358
377
387
368
342
339
343
346
350
358
373
359
366
368
367
159
663
543
331
326
324
324
322
322
336
353
369
364
330
318
320
319
319
320
336
329
338
339
341
274
406
653
303
305
304
304
303
304
319
338
357
365
336
312
317
319
321
322
333
334
336
343
343
343
97
663
432
317
305
307
304
304
316
335
360
373
367
338
332
339
340
342
347
367
381
375
360
360
348
107
664
364
322
307
315
310
310
317
330
348
367
361
347
351
355
356
362
382
379
372
373
373
370
65
665
498
332
322
320
321
319
328
345
369
390
385
359
358
357
351
347
367
361
358
359
358
353
47
664
448
304
291
286
283
281
290
309
330
350
347
319
321
324
317
314
334
330
332
331
333
337
53
665
430
295
294
292
295
300
311
332
363
371
362
331
343
336
327
330
340
353
351
356
363
349
92
664
620
304
292
297
294
289
296
305
335
369
359
340
326
328
322
326
325
356
347
357
353
358
275
484
663
306
308
301
305
306
308
327
355
381
394
368
344
343
345
354
341
375
369
367
368
363
358
115
664
374
313
312
314
318
311
324
352
377
390
375
336
332
332
326
325
342
343
344
348
346
348
70
664
476
318
310
306
306
302
306
321
346
369
358
325
315
315
311
316
315
338
327
329
322
312
157
624
498
282
285
282
276
266
276
285
312
331
335
300
287
285
286
280
291
310
310
314
318
317
310
141
662
301
293
293
283
280
285
306
322
350
360
347
320
320
318
318
326
335
354
352
363
374
376
177
664
635
346
346
351
365
371
372
397
424
441
439
407
397
406
401
393
393
410
402
409
404
405
369
389
664
367
365
359
358
353
354
364
382
398
408
386
367
372
366
360
353
365
370
369
374
368
368
152
664
357
326
319
319
317
321
330
350
374
382
368
339
337
344
337
343
364
371
375
380
381
377
129
664
425
337
329
325
328
327
333
358
370
378
370
338
328
337
335
333
345
347
343
344
342
340
79
664
441
292
274
273
270
263
276
286
312
333
337
313
306
308
303
308
320
319
321
329
337
339
85
664
417
309
303
302
299
301
308
326
348
368
372
345
339
342
343
344
370
378
383
378
385
384
136
663
379
352
349
342
340
336
341
359
373
394
394
354
356
355
353
345
361
352
349
346
344
304
259
624
306
305
290
284
277
277
288
305
318
323
292
262
261
263
261
264
291
281
292
300
305
226
401
492
286
280
287
290
295
305
324
344
364
374
346
330
339
341
352
358
379
373
385
387
390
261
637
649
366
366
365
367
370
377
394
416
434
432
399
384
389
389
394
399
408
399
405
402
403
184
663
651
364
358
350
346
341
347
355
372
387
386
372
366
375
370
369
393
383
385
383
378
352
214
664
349
332
320
319
315
312
315
330
348
357
360
359
364
367
366
369
388
367
377
377
372
199
663
661
314
306
301
299
297
298
307
321
338
345
341
345
352
350
354
372
374
367
369
367
369
121
665
430
315
305
301
294
295
301
317
333
348
344
336
341
343
341
345
370
359
356
350
350
322
312
664
311
303
294
296
294
297
306
326
347
364
350
341
343
346
346
349
368
353
359
360
361
129
665
568
315
302
301
298
299
306
321
342
360
366
349
341
343
339
335
359
349
343
339
336
255
473
660
281
275
269
269
260
261
275
291
310
318
302
288
292
287
284
302
304
298
302
305
305
60
664
289
266
259
258
261
260
274
291
316
335
335
320
322
325
326
336
356
345
354
355
359
134
664
603
321
315
312
312
310
314
329
348
371
376
362
361
362
362
359
384
374
380
376
378
298
510
663
332
337
328
324
323
326
340
356
378
389
372
372
374
371
368
391
388
387
386
388
355
314
664
348
341
336
334
330
331
345
362
381
395
381
377
377
377
374
395
391
389
390
386
342
419
665
345
337
334
325
327
328
336
349
370
370
359
348
345
347
355
368
361
356
357
357
238
655
664
278
284
267
270
264
263
281
307
325
335
327
312
308
310
323
342
328
332
332
336
132
665
614
286
277
277
278
278
284
295
315
335
336
327
327
333
332
342
355
342
348
350
352
118
665
431
314
305
302
300
297
304
321
341
365
356
330
324
324
329
333
353
341
350
351
354
166
663
469
330
323
318
314
306
312
333
355
377
368
331
320
319
320
326
347
359
356
364
366
357
162
659
334
325
318
312
308
310
323
346
369
386
358
317
306
304
300
299
315
312
318
318
315
198
470
469
284
282
278
275
271
282
301
325
347
350
316
294
295
295
297
315
321
325
334
338
327
174
649
329
322
323
320
320
325
340
361
385
397
381
356
359
359
358
364
381
378
384
385
389
199
663
515
358
352
351
352
347
354
369
392
408
402
377
367
369
365
370
381
387
382
388
387
379
196
663
379
364
358
356
350
346
356
373
402
412
398
388
401
401
386
393
399
377
377
380
362
78
665
661
290
288
292
283
280
284
303
305
320
324
320
317
319
319
310
336
325
314
310
299
226
363
664
243
241
238
236
226
253
259
281
295
304
305
304
304
308
320
313
337
327
335
333
333
36
665
659
263
250
241
225
212
208
221
239
261
267
269
288
305
311
315
324
359
351
343
345
347
246
650
663
300
306
301
298
297
292
300
316
339
344
336
337
350
358
358
357
374
361
367
372
369
201
663
594
337
333
332
325
311
317
337
351
380
377
345
337
336
333
336
356
355
355
361
362
258
586
661
319
325
322
328
321
322
335
351
371
373
347
338
342
340
348
374
374
370
370
368
269
570
662
322
335
341
348
350
350
363
383
405
407
378
364
362
363
365
388
380
386
386
387
209
664
653
351
350
351
349
339
338
353
376
398
397
367
356
356
356
368
371
369
372
373
356
202
664
338
327
324
320
315
308
318
341
365
378
358
335
330
328
328
336
332
336
338
338
56
664
402
300
289
284
277
275
277
296
321
339
337
323
326
327
323
330
325
328
332
333
100
664
512
305
297
295
294
290
291
305
323
345
344
332
334
333
326
344
336
339
340
343
188
663
653
309
301
294
288
282
281
292
311
332
342
337
343
349
349
365
363
363
370
369
317
393
664
327
331
329
326
322
322
333
355
376
384
373
372
377
375
368
384
380
381
381
382
122
664
596
340
332
326
321
314
312
325
346
360
354
341
347
347
338
337
356
358
355
357
360
238
544
661
308
308
301
295
286
286
298
319
339
339
319
320
330
328
328
329
348
342
352
354
355
55
664
411
315
309
307
302
298
305
326
346
356
342
324
334
338
334
331
350
354
354
359
364
270
492
662
314
320
317
313
308
310
325
347
365
365
336
328
337
333
330
335
351
344
357
360
355
120
664
342
323
316
314
311
310
321
341
364
369
347
328
337
339
333
334
353
351
360
363
366
73
664
453
334
325
324
320
316
326
345
367
382
363
337
338
338
331
326
344
342
344
346
346
147
663
579
302
294
290
284
279
282
299
318
338
329
296
293
296
295
294
301
319
315
327
331
333
69
664
467
301
293
293
292
290
301
324
350
369
358
329
331
334
334
336
343
361
362
366
372
374
292
473
663
332
341
342
343
338
340
353
377
393
398
367
350
355
353
353
359
365
382
375
382
380
379
114
664
535
349
344
345
342
336
345
364
389
401
387
352
350
351
346
345
347
365
362
372
375
377
131
664
590
340
335
329
328
320
325
344
365
382
372
340
337
339
334
332
335
351
344
355
360
358
89
664
479
314
306
303
300
296
300
321
347
367
357
327
331
336
333
339
349
358
353
350
350
350
53
664
367
319
307
308
310
314
318
332
351
356
343
321
319
322
316
319
330
342
340
337
333
86
664
592
284
286
288
295
298
301
312
328
347
348
317
317
364
304
311
336
331
330
330
331
203
655
663
249
258
242
252
242
252
262
285
308
310
291
282
290
287
281
299
292
300
310
307
171
663
663
254
264
263
267
269
281
303
334
353
353
335
341
355
359
366
383
389
402
413
418
119
665
636
379
377
376
377
384
400
424
449
455
432
414
428
424
421
436
434
439
448
444
315
661
664
381
385
377
374
372
376
392
412
422
419
397
393
391
386
380
398
388
385
376
375
174
664
660
305
297
291
285
277
277
286
302
320
319
310
313
315
315
329
329
322
324
321
285
229
664
262
261
254
252
247
243
257
275
296
308
293
294
295
298
294
313
309
314
314
312
44
664
554
268
259
260
258
259
267
284
310
327
329
315
323
327
326
332
350
344
351
352
353
54
665
465
315
305
305
303
302
312
333
357
372
360
346
356
354
350
355
376
374
372
367
362
185
664
664
302
310
309
312
319
331
351
371
391
388
360
348
352
348
347
355
372
363
369
369
365
42
665
625
313
308
310
317
313
323
341
361
378
368
344
347
348
346
349
355
373
362
369
367
361
52
665
539
306
294
293
289
290
301
321
342
359
348
324
324
323
315
313
321
332
320
326
320
316
16
665
405
257
244
238
239
239
251
274
297
309
292
272
274
275
273
276
286
292
312
300
310
305
311
0
664
488
269
265
265
269
271
287
311
339
359
353
323
323
330
333
336
347
360
373
380
375
382
383
378
169
665
466
342
336
338
337
338
355
380
404
420
399
372
371
372
368
372
382
392
397
406
398
402
400
399
94
665
587
343
338
334
333
333
345
368
390
409
398
360
355
356
355
356
358
365
374
377
372
378
379
372
100
664
475
332
321
318
314
317
327
355
376
394
374
343
342
344
345
342
351
356
378
369
370
364
363
297
401
664
313
304
298
296
296
302
322
339
364
376
360
341
343
339
337
337
338
357
356
353
350
347
314
237
664
320
288
284
288
286
288
299
320
341
360
354
340
343
343
340
341
340
368
353
357
355
352
132
664
662
295
295
291
289
283
286
301
319
338
339
314
310
310
301
295
292
313
301
300
298
289
195
417
662
221
222
237
218
207
214
234
259
295
298
280
272
275
272
269
265
289
277
282
286
294
45
664
649
275
277
278
280
281
287
308
332
359
356
330
337
343
348
354
381
386
392
393
390
276
603
664
328
338
336
339
344
353
374
401
420
421
388
380
384
377
372
393
394
401
402
402
327
500
664
364
351
346
346
342
344
366
391
413
413
378
367
368
363
360
374
379
375
379
378
370
88
665
474
322
312
308
304
301
311
330
350
362
341
317
325
328
326
331
335
356
342
351
352
352
72
664
656
305
306
307
304
300
310
328
351
368
355
321
323
326
321
318
319
336
335
327
331
332
320
86
665
318
285
278
276
272
270
277
295
316
329
305
285
298
306
305
314
325
337
337
327
332
331
328
42
664
366
290
284
286
288
290
307
328
350
369
356
326
328
329
331
333
341
363
362
367
373
376
350
299
664
375
324
321
319
318
320
334
354
379
389
366
353
362
362
356
358
363
384
373
377
380
378
246
662
664
314
324
319
317
316
316
333
355
376
376
349
341
344
341
341
345
352
367
363
364
369
364
355
173
665
361
320
311
307
309
308
326
349
370
384
359
333
328
333
333
336
341
358
358
357
362
362
356
86
664
402
319
304
307
306
309
323
351
372
385
371
342
340
341
341
340
344
363
358
357
355
350
334
152
664
347
304
295
296
294
296
311
334
362
375
358
336
340
339
336
337
339
362
352
360
359
361
229
644
663
306
309
305
302
301
301
318
342
366
367
340
329
334
333
328
330
334
354
347
348
348
345
320
219
664
305
285
279
275
271
267
276
293
315
321
302
284
290
293
287
292
299
304
321
311
319
320
317
285
270
664
271
272
266
270
271
270
283
306
329
341
322
308
320
324
331
338
353
362
375
390
371
386
381
382
155
664
661
324
327
325
323
324
333
353
376
395
391
358
351
356
354
352
360
370
379
384
376
384
386
384
89
665
653
332
331
331
332
333
344
364
386
407
399
371
364
364
363
360
364
373
380
382
375
381
381
377
104
664
630
331
330
330
327
327
335
361
383
400
392
351
345
351
347
344
350
356
358
372
363
371
371
365
282
496
664
312
313
304
304
305
311
329
352
376
382
352
328
324
321
317
319
327
338
355
348
358
357
355
126
664
660
288
289
287
288
287
298
318
344
365
362
334
325
335
332
332
337
345
363
358
354
359
352
351
43
664
468
303
294
294
294
294
302
322
345
360
348
323
329
333
332
337
342
350
356
373
369
367
368
366
357
126
665
429
315
308
305
304
304
310
329
350
367
352
331
345
350
349
350
356
363
369
371
379
366
373
369
369
135
664
658
312
309
310
309
307
309
325
349
370
364
330
319
323
320
318
320
327
333
335
346
332
339
333
332
300
192
664
285
277
269
270
270
273
290
314
337
346
322
291
298
302
302
306
315
321
328
346
338
340
340
336
327
135
665
345
305
300
302
300
303
318
341
366
377
358
329
337
345
343
345
351
357
366
373
373
366
369
368
365
140
664
658
305
302
301
299
301
308
330
356
374
367
333
323
329
328
324
328
333
338
342
346
360
348
352
352
352
279
435
664
297
298
296
299
300
305
326
353
372
383
359
335
339
343
342
342
348
357
364
370
382
377
374
374
372
369
61
665
532
311
305
305
304
300
310
331
353
368
358
328
329
335
334
330
336
340
349
353
359
368
372
357
361
361
360
48
664
579
307
303
303
306
306
313
333
358
378
374
344
337
343
341
338
343
349
360
368
373
382
385
377
378
379
377
61
665
591
316
311
310
311
308
315
338
362
383
379
350
345
355
350
346
348
352
359
363
367
374
375
364
366
368
364
75
664
574
315
313
312
310
304
313
336
357
381
368
328
314
321
319
316
316
321
322
323
326
329
321
318
315
314
306
23
664
324
260
247
248
246
249
264
290
312
332
325
291
288
295
295
294
300
308
314
320
337
329
330
333
334
284
272
664
294
287
288
291
295
301
319
342
364
382
368
348
354
358
360
360
366
378
383
400
386
393
389
386
275
613
664
340
342
340
343
341
344
358
377
397
403
382
368
378
381
376
376
381
390
394
399
385
391
387
384
221
663
663
320
328
325
323
318
319
335
356
376
378
349
341
355
353
350
350
357
363
370
374
382
388
389
375
378
372
372
73
664
529
319
315
312
311
307
321
342
368
383
374
338
336
349
348
349
347
357
362
364
378
367
363
358
354
350
36
664
527
293
282
280
278
275
280
294
307
320
314
292
284
288
282
274
274
276
278
293
278
278
272
265
239
73
664
222
214
212
208
211
212
221
245
266
281
269
253
267
276
274
276
284
293
300
321
310
321
325
327
288
294
664
310
300
299
303
302
303
319
343
369
384
370
359
376
381
379
379
385
394
402
410
421
425
414
419
416
416
130
665
662
344
350
348
348
348
356
372
395
418
421
388
380
391
391
385
384
386
396
398
399
403
412
398
395
390
385
363
194
665
409
320
313
311
305
303
315
333
354
369
350
316
315
322
323
319
322
330
337
340
340
343
351
338
339
336
333
295
242
664
290
284
282
286
286
287
303
329
352
370
352
320
321
330
327
329
332
340
348
355
363
373
361
369
368
367
318
352
664
327
315
311
313
310
314
335
367
392
404
380
349
354
359
354
357
357
363
371
374
381
388
374
381
382
378
187
664
663
311
318
315
315
311
317
333
356
376
380
352
332
338
340
333
332
336
341
341
352
345
337
338
332
330
60
664
622
274
269
269
266
264
271
292
315
332
333
302
289
298
302
299
301
311
319
325
332
343
337
334
335
335
332
34
664
550
282
274
277
277
277
286
308
333
354
353
321
312
325
327
322
325
334
344
349
356
369
364
360
363
363
363
80
664
627
318
317
319
322
321
329
357
382
404
399
364
351
362
362
358
358
370
378
384
388
392
397
383
388
383
384
168
664
662
322
330
325
322
323
331
350
375
396
401
372
347
354
354
348
349
350
359
364
368
380
370
368
367
362
360
53
665
607
311
309
309
311
308
313
337
361
385
381
347
332
338
341
334
335
340
348
353
357
365
374
358
361
356
352
335
157
664
355
299
292
290
287
286
295
316
338
349
336
299
291
296
293
284
283
285
294
294
302
320
310
313
307
296
281
46
664
265
230
221
220
218
218
233
259
285
305
292
260
259
274
278
280
287
298
311
318
329
337
344
335
338
341
346
110
664
662
309
318
321
322
328
338
367
392
414
419
397
377
387
391
390
395
394
402
407
426
418
414
413
417
423
112
665
661
359
364
361
365
367
372
383
395
410
412
403
397
403
402
395
394
393
394
409
390
389
378
372
367
58
665
581
319
319
319
319
320
326
340
360
377
370
348
345
350
348
342
341
347
358
367
355
358
358
355
245
599
664
289
292
285
284
282
282
294
311
328
334
310
293
302
306
300
299
302
307
324
321
318
320
316
312
87
664
659
240
238
236
235
235
240
256
275
296
301
281
274
290
294
294
298
308
314
323
340
333
331
332
333
330
29
664
576
277
276
242
250
266
246
273
315
335
337
316
312
327
334
345
359
385
387
406
422
433
444
461
467
467
170
665
662
374
367
359
356
348
367
390
416
434
428
396
390
389
386
374
374
369
379
372
372
350
357
350
348
160
664
661
273
274
267
267
264
267
280
285
301
313
306
301
296
296
298
298
309
322
329
312
309
301
303
165
663
658
255
255
248
252
255
259
265
273
290
303
299
298
300
298
305
308
324
352
322
304
310
305
305
68
665
468
282
272
226
196
328
264
276
291
334
386
384
416
408
402
424
441
442
467
442
442
445
446
440
224
665
632
397
396
379
368
341
344
349
344
333
301
322
269
286
314
321
334
356
384
377
382
360
380
326
386
664
313
323
326
333
338
339
352
359
374
378
354
334
338
341
341
346
350
365
348
349
353
348
272
420
662
297
302
297
293
294
299
315
336
358
371
347
311
303
311
310
316
329
335
331
339
343
340
157
662
627
312
315
318
316
315
318
335
354
375
386
371
355
357
358
352
355
374
368
367
372
373
376
144
662
475
352
341
340
335
320
303
316
322
340
342
320
318
318
315
306
303
314
295
296
293
283
258
68
528
273
265
266
257
248
227
234
249
273
293
285
290
300
307
309
320
341
343
356
353
360
349
122
662
350
347
342
342
334
331
337
347
375
397
394
393
391
393
391
391
400
384
387
386
382
305
370
660
345
336
333
330
319
316
317
327
348
361
368
363
375
382
384
394
402
392
395
398
406
145
664
611
372
370
356
363
353
343
348
353
369
377
373
387
380
384
372
381
375
380
384
373
203
663
629
322
308
302
294
288
281
285
300
317
324
314
315
319
322
323
339
329
332
312
327
86
663
447
304
305
294
300
298
299
299
315
343
346
329
332
342
333
363
365
350
362
374
369
119
664
360
340
340
323
331
321
322
328
358
379
379
368
368
370
371
390
377
392
389
402
301
594
660
356
351
352
355
351
333
348
367
370
394
385
373
379
375
377
396
373
377
371
375
107
664
414
329
278
315
312
297
269
300
319
387
323
314
308
323
310
339
318
340
313
353
282
328
658
297
305
304
293
311
285
294
315
319
331
332
322
334
338
346
364
352
358
358
359
130
664
483
329
314
314
308
301
300
315
339
364
369
349
350
357
368
376
399
385
398
396
388
215
664
368
355
343
337
328
321
325
343
370
389
377
355
351
350
351
372
365
363
363
359
195
663
559
315
303
297
291
285
286
302
330
358
366
343
329
343
340
340
356
345
351
354
349
98
663
337
313
300
298
289
281
288
304
329
354
348
336
335
323
324
322
341
326
330
328
323
72
662
304
287
280
271
271
266
266
282
312
334
331
312
308
311
314
318
334
322
331
334
318
163
662
307
311
305
306
302
299
306
324
351
370
365
356
363
362
365
378
389
376
383
384
306
447
658
343
348
345
344
337
328
333
355
388
406
369
386
372
367
377
389
381
397
403
382
232
652
547
365
357
363
352
334
319
369
357
396
392
383
372
369
366
373
412
389
394
388
399
162
660
448
361
411
297
315
323
333
341
348
387
350
350
277
350
290
299
390
356
335
333
362
117
662
309
327
273
248
276
275
254
314
319
348
327
312
318
314
326
302
334
328
337
324
313
238
629
304
332
285
303
294
343
327
330
382
376
340
327
309
345
304
341
349
296
347
347
246
570
563
352
330
335
348
367
324
367
386
431
383
360
353
365
373
375
392
393
412
419
401
141
664
477
360
359
362
353
349
365
366
388
398
380
352
358
355
358
378
378
383
387
384
265
615
661
329
330
324
322
319
327
339
356
379
379
363
353
355
352
352
365
362
371
373
374
102
664
420
333
320
313
307
309
314
330
350
359
342
328
334
334
330
343
345
351
355
354
232
594
658
319
318
312
305
302
303
312
326
342
337
317
321
328
328
329
342
339
347
346
339
122
662
299
290
282
279
278
274
282
296
311
312
287
274
281
282
278
292
298
308
318
324
183
596
513
304
300
300
295
295
297
312
330
348
340
319
322
334
334
337
356
361
370
375
369
92
663
493
329
312
317
313
317
328
347
365
385
386
370
381
375
373
386
386
384
388
387
286
621
664
332
323
320
322
318
321
336
350
368
375
371
375
383
392
388
410
400
400
398
393
101
665
612
324
318
323
321
314
326
333
344
356
357
353
352
347
349
367
366
357
358
360
295
435
664
293
288
279
278
273
273
286
299
314
325
320
323
321
329
321
343
329
331
324
323
55
664
563
262
256
253
247
242
252
263
283
295
299
295
302
310
310
319
327
319
319
322
291
255
664
275
260
252
258
256
261
272
292
311
322
328
330
328
334
337
359
356
353
350
357
203
663
662
311
306
306
306
301
306
313
332
347
353
348
354
363
362
371
397
380
387
387
386
106
665
587
328
320
318
318
320
333
351
369
384
385
374
379
380
374
375
391
370
374
368
360
162
665
418
301
292
290
291
290
297
326
344
355
337
316
315
315
318
331
335
329
333
332
256
512
662
268
261
258
244
246
256
270
292
324
334
308
292
285
283
285
307
298
308
307
309
48
664
369
271
262
271
264
268
281
306
335
356
345
324
321
322
320
342
340
344
347
353
220
660
661
308
312
312
310
310
317
336
361
385
391
372
371
377
369
381
385
380
386
382
332
410
664
367
369
367
369
365
366
377
395
409
404
384
376
379
378
392
396
399
407
412
354
400
664
353
339
333
328
326
331
350
375
392
396
369
359
359
352
359
350
354
357
361
235
631
662
313
313
304
296
291
293
304
321
338
333
318
315
322
313
320
307
313
314
313
39
664
420
277
265
260
258
252
255
270
286
296
287
282
296
300
295
305
301
314
318
313
80
663
295
287
284
279
275
279
290
310
326
336
324
325
335
337
333
349
352
362
364
369
127
663
530
346
342
337
335
333
339
356
374
382
371
360
367
372
370
377
383
384
391
391
315
460
661
342
342
336
330
326
325
334
350
362
356
332
333
336
331
331
336
336
345
346
291
367
656
307
309
303
301
299
299
309
326
342
342
324
324
330
328
326
346
349
361
367
371
103
663
399
352
346
359
349
357
366
385
400
412
396
386
393
393
388
406
400
401
403
398
155
664
476
351
336
328
323
331
331
346
356
372
357
351
351
339
343
359
348
358
341
347
95
665
404
320
306
299
298
292
294
299
309
328
311
306
311
310
309
332
328
331
333
336
66
664
451
300
289
289
282
284
289
306
330
347
342
329
337
340
334
352
348
353
350
350
63
664
460
308
301
304
304
306
315
334
358
371
362
352
358
354
345
364
367
378
387
394
117
664
478
358
348
338
329
325
334
350
372
386
373
362
367
369
362
380
381
389
389
386
115
664
419
343
332
329
328
327
335
353
369
381
364
347
351
351
342
356
357
363
366
369
161
663
538
337
330
330
329
327
329
345
366
379
366
336
332
332
327
339
350
349
356
360
311
341
662
315
323
320
318
316
314
327
348
367
369
340
323
321
320
323
344
347
348
353
356
238
571
649
314
316
316
317
312
313
330
354
375
375
349
338
340
336
340
362
368
367
370
371
209
662
657
335
333
330
328
327
336
352
372
393
389
369
365
364
362
365
390
389
386
387
382
233
661
663
319
322
312
308
304
301
313
331
351
352
331
322
320
313
310
329
326
319
319
315
186
549
663
249
246
239
234
228
228
240
262
282
281
264
262
265
262
269
279
296
289
297
299
279
153
664
272
265
260
260
259
262
276
298
324
337
324
316
325
328
329
337
366
365
370
372
374
194
663
662
321
327
323
322
321
328
345
369
391
391
367
365
370
371
370
380
404
396
401
400
400
114
664
632
349
346
343
343
341
350
352
374
398
389
374
377
381
379
416
488
390
429
452
414
362
367
663
339
332
328
363
311
300
341
299
323
345
369
275
273
343
276
344
271
315
292
340
308
56
663
236
245
247
244
218
203
238
238
307
281
233
300
271
232
256
288
263
259
290
265
291
218
657
254
328
275
392
311
272
305
333
413
360
367
294
357
327
293
301
344
331
362
332
183
661
447
335
349
371
324
364
368
419
391
406
404
361
365
372
327
376
387
403
418
409
298
565
570
398
386
377
374
366
375
384
400
417
403
372
356
351
352
370
359
354
346
347
152
662
469
306
298
297
300
295
298
320
343
369
373
340
353
363
343
362
343
341
352
348
130
658
379
297
261
236
268
276
276
288
306
329
332
341
353
354
357
374
373
381
385
383
140
664
516
334
326
323
322
322
330
347
368
387
385
377
386
390
382
403
400
405
406
402
197
664
599
339
329
326
320
320
325
340
358
377
373
358
364
366
358
359
368
383
371
373
375
376
154
663
487
335
327
325
322
322
325
337
359
375
370
352
356
360
358
357
365
384
383
378
381
375
286
456
660
334
336
331
328
317
318
323
343
361
360
338
324
321
311
305
309
329
320
321
321
322
100
663
531
286
277
276
270
267
270
287
315
340
343
328
329
328
326
328
342
351
344
350
355
325
245
663
319
320
315
314
311
309
319
341
367
377
366
360
368
363
363
370
379
392
381
389
387
382
121
663
388
344
337
333
329
326
332
349
365
378
361
345
350
348
344
351
361
371
381
377
371
371
369
289
436
662
317
319
314
308
304
306
323
341
367
370
345
326
325
327
325
339
348
351
365
353
357
354
353
115
665
604
315
313
314
315
312
312
323
340
357
353
330
328
333
331
332
342
355
367
371
367
375
373
366
152
664
344
320
312
309
306
303
314
333
355
367
347
324
325
323
319
321
327
331
337
327
335
332
331
95
663
424
291
281
276
273
271
276
294
320
341
328
290
280
283
281
281
291
301
315
307
317
316
320
38
664
380
292
285
283
284
286
298
323
350
371
363
333
328
328
326
335
348
362
376
369
380
382
379
105
664
419
340
332
331
332
334
349
373
401
418
408
389
393
396
388
391
396
416
411
409
411
410
342
423
663
361
364
356
352
349
347
358
376
394
396
373
360
363
360
358
360
371
386
384
383
384
382
352
244
663
333
334
330
328
323
323
329
349
370
379
355
340
345
346
335
337
349
358
361
356
360
357
353
74
664
373
313
306
303
302
296
309
328
350
364
354
331
334
339
330
335
338
349
361
357
348
347
338
297
220
664
290
288
285
279
276
274
288
304
324
336
325
309
313
310
312
315
324
340
352
346
355
352
349
93
664
376
309
301
302
301
299
311
333
358
377
369
354
356
354
347
345
350
355
374
362
363
361
358
279
417
663
295
297
292
288
286
286
298
317
338
346
328
317
323
323
320
326
336
347
351
356
369
356
359
358
357
182
663
660
308
309
311
310
308
311
320
343
369
373
358
350
354
356
349
358
367
374
379
393
383
385
383
382
352
244
663
339
337
330
328
327
322
337
354
379
388
368
343
345
342
340
343
351
362
362
366
374
360
364
362
358
220
596
661
309
305
304
301
296
299
310
332
356
363
341
325
329
326
326
331
339
345
349
357
370
360
365
365
365
277
486
663
307
316
310
306
302
300
311
331
355
362
343
325
329
326
320
322
330
337
343
354
350
343
345
343
341
57
664
361
300
296
295
292
290
297
317
341
359
355
329
329
332
328
331
338
351
356
363
379
378
375
380
377
371
110
664
387
339
334
331
327
325
338
360
386
407
392
364
361
361
359
358
365
371
376
388
378
373
377
377
370
96
664
399
331
324
324
320
318
324
345
371
393
386
360
360
359
356
357
362
367
369
369
376
361
361
354
350
190
658
652
294
287
276
270
262
257
279
299
317
320
292
276
278
268
259
261
264
263
265
276
273
278
280
289
258
162
661
258
264
263
264
261
263
279
304
332
347
327
306
316
326
328
340
352
362
375
382
392
403
394
405
414
417
313
566
663
369
376
369
367
361
362
378
401
424
430
406
381
384
380
374
378
385
392
397
398
404
388
390
384
379
175
663
651
318
316
311
310
309
313
328
352
374
380
354
338
345
346
338
342
346
352
353
356
361
370
355
361
358
356
183
663
652
314
317
316
313
306
311
327
347
367
371
343
325
329
325
321
323
332
337
340
342
350
361
343
350
344
341
193
617
638
292
290
288
287
286
282
302
328
350
357
335
319
327
330
328
336
343
354
360
371
378
388
370
376
377
375
152
664
614
332
328
330
330
329
337
356
384
407
407
376
364
367
366
362
364
370
372
375
379
384
383
376
374
368
368
73
664
533
325
320
318
313
311
314
334
352
372
369
340
337
341
342
341
350
359
367
370
376
386
369
374
368
363
222
624
661
304
306
304
304
300
301
317
337
361
368
347
332
348
349
341
345
350
353
357
360
364
369
357
365
364
364
151
664
624
320
318
318
320
317
318
333
352
371
369
348
335
345
343
339
342
351
360
366
373
377
374
372
379
358
364
361
354
127
663
523
293
279
273
268
261
262
282
302
325
323
295
273
277
273
270
268
274
277
275
272
271
274
280
271
271
269
270
218
223
660
250
253
251
252
253
256
273
301
331
350
335
305
306
309
312
315
326
339
348
358
369
383
379
386
394
397
358
271
664
366
353
349
351
352
351
362
383
403
419
409
384
387
392
389
388
396
402
412
418
421
425
435
422
423
419
419
380
321
664
401
367
360
356
346
343
349
369
391
407
396
374
378
383
376
375
379
382
389
391
391
390
389
389
392
366
371
372
368
111
664
558
325
320
323
321
321
321
339
359
388
390
365
351
356
352
348
345
347
351
355
358
362
373
381
380
373
378
375
366
120
664
379
330
321
318
314
311
320
343
367
387
375
343
339
344
341
343
349
354
359
365
369
377
378
375
360
357
355
352
61
664
479
307
301
301
300
295
306
330
357
380
378
356
346
349
345
340
337
340
343
348
350
362
349
354
355
356
278
393
663
304
310
311
308
306
306
315
335
354
363
343
321
325
328
324
324
332
341
348
354
368
359
365
371
371
365
118
664
361
316
310
310
304
303
315
339
367
383
371
344
350
358
358
356
358
366
368
373
375
372
359
358
357
356
149
664
657
306
305
308
308
316
322
345
368
395
399
372
356
359
351
344
339
340
342
344
344
358
345
347
344
343
338
95
664
351
299
289
283
276
267
269
281
301
316
308
281
284
288
285
281
283
288
294
296
306
302
300
302
296
295
26
664
426
253
244
239
234
234
241
261
279
303
306
285
283
298
297
296
299
306
314
322
332
343
332
342
345
345
278
378
662
299
306
305
305
306
309
324
342
365
377
358
338
348
354
354
353
357
368
375
380
385
397
387
390
393
391
390
109
664
477
360
356
352
359
359
369
392
416
433
433
406
400
406
402
410
412
417
420
420
431
412
408
403
399
362
227
665
411
347
341
338
337
336
339
351
364
378
376
364
370
371
370
363
368
372
380
395
374
373
364
362
250
597
664
304
303
300
301
300
302
308
321
337
348
346
340
348
350
344
339
339
339
360
343
337
329
323
313
49
664
336
253
241
237
233
227
228
238
254
267
267
253
256
261
257
250
248
253
276
263
262
261
257
254
0
664
298
211
202
209
208
209
216
235
255
280
287
280
288
297
301
299
304
314
342
339
341
344
346
347
76
664
488
321
319
322
323
323
334
349
374
399
404
395
396
404
401
402
405
413
434
417
422
419
419
366
418
664
396
364
356
354
350
348
353
368
391
407
403
391
392
391
386
386
390
409
400
396
396
395
391
113
665
580
339
332
331
326
321
325
339
359
378
384
370
367
367
366
361
363
387
375
371
370
366
361
80
664
462
313
300
299
295
292
295
312
334
355
355
335
330
332
329
327
332
351
340
346
343
341
279
330
663
293
300
298
298
297
297
305
329
352
366
354
336
342
343
341
344
369
365
369
368
368
368
71
664
481
328
317
315
311
307
310
329
352
372
368
346
349
351
349
351
366
373
362
370
371
371
181
663
656
331
329
325
321
316
316
331
348
369
373
351
347
350
349
348
355
374
366
372
372
371
314
357
663
325
333
330
328
320
316
327
349
368
380
363
349
356
358
353
356
374
371
375
374
376
360
164
664
350
340
329
327
323
323
333
354
368
381
370
346
352
357
356
362
375
365
362
356
354
340
100
665
375
315
305
302
296
295
294
308
312
322
321
305
307
298
304
318
329
313
322
320
325
192
663
653
271
270
266
266
268
278
288
290
307
318
324
323
324
324
323
349
331
311
320
324
319
173
664
290
303
301
309
319
306
308
308
296
302
305
228
226
345
294
329
312
340
327
330
352
309
364
663
295
309
294
295
279
262
249
247
259
273
262
267
234
273
243
245
271
231
279
291
285
140
585
393
268
260
250
221
205
204
205
242
263
262
289
304
278
299
315
326
306
362
364
376
361
202
601
378
365
375
346
326
335
339
364
398
409
408
388
387
383
406
427
330
431
401
424
430
217
590
411
423
417
419
405
398
419
451
456
475
465
439
455
472
484
501
498
496
498
496
493
263
662
474
435
419
406
399
395
399
415
436
445
406
356
352
354
360
376
374
372
371
367
330
223
658
305
299
290
286
280
287
305
330
361
372
337
302
301
302
304
317
309
310
305
298
214
373
599
275
274
276
284
285
296
317
347
375
375
340
312
313
311
312
329
333
345
351
352
176
663
658
313
316
317
320
323
336
361
389
410
402
364
349
347
347
352
364
358
370
369
369
68
665
526
316
307
305
305
311
321
343
368
383
361
327
330
327
321
338
335
347
352
352
294
430
664
307
313
311
306
309
311
330
347
369
371
347
342
344
333
327
331
324
332
333
335
59
664
397
318
314
318
323
319
328
343
362
372
347
321
319
320
314
333
333
346
351
353
168
663
590
328
321
318
315
313
314
322
338
350
336
305
303
304
298
314
312
320
325
320
222
506
631
279
275
270
268
265
269
281
300
319
316
285
282
285
283
299
305
315
323
328
261
449
655
303
308
309
311
313
314
333
356
380
377
346
343
346
347
362
370
376
386
389
354
358
663
351
358
357
356
354
354
369
390
412
411
378
362
369
418
341
376
374
389
383
381
140
664
427
357
356
353
344
349
358
372
393
397
373
348
349
353
351
372
372
389
381
383
231
662
591
349
345
339
333
338
338
365
382
397
392
364
351
357
347
361
354
354
358
354
216
650
660
294
287
281
269
266
263
271
288
297
298
276
276
277
269
288
284
281
292
292
181
587
662
244
239
238
233
231
230
240
258
284
300
292
308
308
311
328
332
333
344
341
245
588
664
306
311
316
314
315
316
336
355
390
412
364
373
387
385
392
388
393
401
398
246
664
662
355
357
353
346
342
346
361
382
403
397
370
372
376
375
395
395
401
405
402
122
664
601
346
340
336
334
332
344
363
387
399
380
351
351
347
344
356
347
354
350
344
69
664
372
294
286
285
280
279
291
314
332
342
313
295
300
300
297
319
308
320
322
320
67
664
327
285
279
280
275
277
293
317
339
352
332
319
322
321
317
338
337
342
343
345
72
664
512
312
300
291
291
283
285
300
320
334
328
315
315
313
306
330
341
344
354
362
287
468
664
331
335
327
323
317
314
328
351
381
386
373
376
382
378
372
390
380
385
379
375
78
665
481
332
326
328
323
319
326
342
361
374
365
358
361
361
354
352
375
365
374
377
376
97
664
463
337
325
321
317
309
315
328
349
360
356
351
359
359
356
357
368
381
366
373
369
346
212
664
328
315
305
299
291
285
290
305
320
329
314
306
310
309
303
303
307
325
312
316
314
311
69
664
498
269
257
254
250
250
253
269
290
312
307
289
292
298
296
300
310
321
341
333
341
342
340
54
664
399
313
305
305
307
308
319
338
363
380
372
351
353
353
352
360
372
387
390
386
391
393
365
259
664
363
361
357
356
352
354
367
385
406
413
388
366
364
361
357
360
365
380
368
375
371
365
99
664
479
339
332
331
329
333
343
361
386
399
381
353
344
346
340
343
345
366
367
371
368
370
240
595
661
305
308
302
303
305
320
341
367
387
379
349
333
327
328
321
321
346
337
342
341
344
131
664
656
285
280
272
272
271
278
294
324
340
335
312
305
307
305
306
314
333
327
336
338
338
43
664
416
288
277
271
267
266
278
299
320
340
328
316
325
330
328
330
349
348
347
343
344
213
635
662
296
300
292
294
295
298
311
334
351
347
326
327
338
336
335
358
363
370
382
386
341
328
663
332
336
328
321
317
323
343
369
392
396
377
370
376
377
370
378
388
385
399
401
388
160
664
407
359
341
337
330
330
339
358
380
382
359
340
338
331
319
337
334
319
331
318
307
123
664
292
277
273
264
265
244
263
291
287
294
288
286
293
295
295
318
323
312
325
329
276
343
664
282
277
265
257
254
261
268
295
320
336
334
348
361
359
359
388
380
377
378
373
245
651
663
287
294
288
287
294
306
321
340
359
368
359
360
355
352
343
355
329
323
329
331
126
664
622
305
311
305
308
320
329
353
372
391
390
385
389
391
390
390
393
362
364
357
354
160
665
374
307
301
304
308
311
320
337
350
358
348
334
326
318
314
339
324
322
319
321
169
663
657
280
276
273
279
282
287
297
317
334
334
328
325
329
335
347
354
343
347
348
319
316
664
310
305
303
306
307
314
321
342
360
371
365
364
366
367
369
387
368
370
363
361
120
664
470
319
318
320
320
323
331
345
360
372
369
361
364
365
361
382
366
357
353
352
112
664
547
299
292
291
288
285
289
302
317
330
333
320
324
323
323
339
333
313
309
304
182
661
660
258
256
257
263
266
274
288
308
329
337
330
331
332
332
334
349
353
341
346
347
201
663
662
302
308
306
309
306
308
321
340
360
368
358
356
359
362
363
370
396
372
373
369
359
172
665
403
315
306
308
306
308
315
333
352
367
366
355
354
355
357
359
363
387
371
370
363
363
114
665
531
315
307
305
307
306
313
327
343
364
364
352
346
346
344
344
350
360
370
353
351
352
284
515
663
303
310
306
307
311
312
325
345
368
382
367
352
347
346
346
348
356
376
362
366
362
362
88
664
456
319
309
310
304
300
303
318
343
366
364
342
335
331
329
330
340
352
348
341
342
339
230
483
635
295
284
277
273
262
258
264
285
310
315
289
294
260
267
269
290
304
270
279
316
296
132
502
388
241
281
292
310
278
233
328
342
307
395
302
263
294
273
318
288
317
299
335
348
314
353
648
271
314
348
314
328
320
359
362
379
392
325
373
359
327
337
389
406
349
399
405
289
498
658
375
346
332
371
335
370
392
314
390
404
376
399
397
380
447
411
387
419
412
405
183
663
456
396
347
358
364
363
345
385
374
395
411
358
342
329
362
395
375
376
372
393
248
655
422
335
338
370
371
432
386
410
399
425
426
381
368
362
333
341
361
349
343
386
254
532
390
308
320
300
329
325
323
309
351
336
342
291
298
306
308
311
329
301
303
273
261
551
369
330
265
282
274
323
319
347
331
335
295
289
263
277
285
300
334
309
333
236
524
481
304
257
270
237
295
268
339
325
357
363
345
347
319
348
373
371
376
420
395
176
662
399
379
384
423
347
377
376
436
403
423
389
352
332
349
362
370
361
374
363
200
662
542
326
321
317
316
313
322
335
356
369
359
334
326
332
339
343
342
354
355
326
305
663
314
317
311
309
304
308
323
344
363
371
348
336
334
326
333
329
327
327
327
77
664
348
283
269
268
260
258
266
284
304
312
297
285
288
284
295
296
301
306
305
147
632
449
265
259
261
266
275
287
307
328
342
325
307
313
318
321
335
339
357
362
352
231
660
340
345
344
345
346
351
367
384
397
393
366
365
373
370
362
379
380
387
386
388
136
663
432
361
353
349
347
343
351
368
386
385
365
349
350
344
338
338
356
357
357
360
357
116
664
498
325
317
313
308
307
309
327
338
350
347
344
355
354
350
367
367
368
372
372
164
664
590
333
326
323
320
316
319
327
341
353
357
357
365
367
366
373
380
373
378
379
273
601
662
332
337
331
323
321
320
329
343
361
362
363
374
378
376
371
389
384
382
385
387
139
664
547
343
335
328
322
317
313
325
338
346
347
346
352
355
351
345
348
359
365
349
352
347
241
494
646
301
296
285
280
274
269
276
294
310
310
297
302
306
307
305
310
317
326
342
328
334
328
325
68
663
332
289
283
282
280
279
290
306
327
340
334
328
338
341
340
342
350
359
364
367
383
377
368
372
369
169
663
586
327
321
321
318
315
320
333
354
372
369
353
353
356
354
353
357
369
375
380
393
381
381
377
378
137
664
514
333
325
323
321
319
325
340
360
376
368
349
348
349
349
348
353
361
367
377
371
367
365
358
244
545
641
305
299
291
283
279
279
292
