422
403
359
339
332
338
337
337
354
356
339
334
332
331
283
579
435
316
308
309
315
329
339
367
384
389
373
331
295
291
290
288
308
320
309
300
298
299
301
216
658
315
291
291
301
308
326
346
370
381
383
353
312
298
297
301
314
334
329
310
310
314
319
210
663
352
307
309
315
324
339
358
385
399
406
377
332
314
308
313
328
346
337
322
325
328
330
224
663
340
317
313
314
325
337
363
385
398
400
368
329
311
310
309
320
331
322
302
294
299
301
196
662
313
287
284
286
296
303
323
346
358
358
326
286
269
267
270
280
292
290
276
277
280
283
185
661
315
276
274
283
291
310
334
362
380
388
365
324
311
316
320
342
349
339
337
345
346
339
443
618
343
338
343
350
364
379
405
430
443
437
399
369
365
366
380
389
384
371
372
374
375
297
664
381
366
372
373
378
385
405
427
437
444
407
370
356
353
354
356
358
335
333
331
332
291
569
436
323
314
318
323
331
345
366
384
390
380
332
302
299
301
307
321
322
299
304
304
304
252
590
396
302
295
302
314
327
342
366
383
387
372
326
305
303
302
320
335
330
315
314
320
324
216
663
352
312
311
316
328
336
359
383
405
408
379
335
320
320
321
336
341
324
314
308
311
309
301
626
299
286
287
293
302
310
336
356
367
360
317
282
273
269
269
276
284
268
260
263
266
251
407
445
267
262
267
273
282
300
320
345
354
346
309
283
284
290
296
312
315
301
299
304
309
251
606
400
315
309
319
328
345
360
388
410
423
402
361
344
340
343
352
369
358
339
344
354
353
271
663
365
347
347
350
361
367
388
410
425
421
382
348
337
338
346
361
346
329
324
322
316
223
662
327
304
303
306
318
332
349
371
379
373
337
299
286
285
309
323
315
294
297
302
305
212
662
309
294
291
301
314
329
352
370
381
381
340
303
295
300
316
334
324
308
306
307
310
240
662
318
307
308
318
329
342
368
389
400
400
362
331
326
328
334
349
358
345
335
332
338
325
451
626
339
334
337
344
355
368
390
409
417
408
365
340
337
338
339
339
346
358
353
340
341
342
340
290
662
332
316
320
326
329
335
357
377
391
388
355
316
302
301
303
306
312
321
329
322
309
312
315
312
315
600
311
293
301
308
322
335
357
378
384
382
340
301
292
291
297
304
315
337
332
313
311
318
324
212
663
340
311
312
317
331
341
362
388
403
402
369
325
305
306
301
304
316
329
317
303
299
303
301
230
659
299
279
278
285
292
305
323
349
361
355
320
277
269
266
268
271
272
288
302
287
283
284
286
262
447
465
286
274
280
291
304
326
352
377
392
382
339
310
303
304
310
315
322
323
347
349
335
337
341
344
234
663
368
327
324
333
344
360
380
406
425
428
401
354
336
336
335
334
334
338
350
366
350
341
345
347
321
502
575
340
336
340
348
358
375
395
414
424
416
370
344
337
338
341
339
339
336
351
346
326
324
326
327
226
662
357
316
313
315
317
322
340
364
375
380
358
312
287
284
283
285
282
286
294
292
267
261
257
262
188
581
313
245
237
234
241
248
268
292
313
317
298
255
228
223
228
234
240
264
282
273
260
267
273
267
323
564
277
268
275
286
306
332
363
390
405
405
369
340
338
344
353
359
374
394
380
372
377
385
389
336
664
391
389
392
396
410
422
445
471
488
483
448
405
397
397
392
391
390
412
411
394
391
395
391
306
663
462
367
365
364
371
382
397
422
436
441
413
369
340
332
327
327
339
351
354
333
324
325
324
291
523
501
311
309
311
325
330
350
373
393
399
390
345
313
309
310
316
322
339
349
329
326
331
334
282
604
490
327
321
326
335
343
360
388
408
409
394
354
319
318
322
320
320
331
343
327
318
316
321
313
365
596
308
295
297
302
314
325
350
374
386
380
340
302
296
292
296
293
310
328
311
303
307
305
308
280
649
313
296
300
313
323
339
362
391
398
399
364
327
322
325
326
330
344
358
339
331
336
336
334
346
661
327
322
320
331
338
353
380
407
425
422
389
353
341
339
336
334
339
349
326
323
323
327
279
579
463
314
302
304
313
321
344
365
384
398
378
330
300
293
292
295
304
326
317
297
296
301
299
192
662
310
290
285
294
302
315
339
362
374
375
348
309
297
295
302
313
340
344
323
317
318
319
221
663
388
310
307
316
327
341
362
384
406
408
380
340
318
320
322
332
354
355
339
332
337
339
268
661
479
330
319
328
337
350
373
397
419
419
401
351
330
326
329
329
348
363
351
339
338
342
336
345
661
332
323
325
335
345
361
387
413
426
424
382
350
343
342
347
347
357
366
352
344
347
356
326
552
595
348
345
340
343
348
360
383
406
404
395
347
313
309
309
306
312
333
312
299
298
300
298
253
641
289
278
279
282
295
310
331
354
363
362
320
283
269
279
283
292
317
308
284
283
285
292
180
663
310
285
282
293
305
323
345
369
384
388
353
313
302
302
311
321
346
345
324
320
326
327
221
663
378
318
311
321
331
343
366
393
412
417
384
338
326
323
325
331
346
364
358
345
346
350
347
279
662
338
327
327
332
346
360
383
407
422
418
376
337
323
323
329
328
334
354
349
335
332
333
333
227
664
358
317
318
322
330
349
362
386
401
406
375
326
309
309
307
309
313
332
335
314
309
310
311
226
662
370
301
298
301
310
324
348
369
390
395
374
330
313
306
306
313
324
344
341
320
318
319
319
209
663
347
301
295
302
308
322
337
362
372
369
338
297
282
283
288
298
300
315
329
319
310
313
318
309
395
604
320
312
316
320
330
347
367
388
399
393
355
327
321
324
326
329
327
338
348
326
316
319
315
287
506
476
304
297
301
312
317
335
364
388
403
387
344
313
310
314
315
317
324
330
349
346
326
332
332
333
235
663
330
308
312
321
332
347
369
395
411
412
383
345
328
329
335
336
346
364
368
349
345
345
347
298
617
540
335
321
325
336
346
360
385
408
409
391
340
313
306
306
307
307
325
337
319
313
315
316
310
365
629
313
304
305
314
324
342
367
387
399
394
349
312
303
304
305
305
310
331
327
310
313
317
318
210
663
337
305
303
311
317
330
352
380
398
406
386
339
326
321
327
329
326
338
359
347
330
330
333
332
245
662
336
317
312
322
333
346
363
392
407
413
375
334
316
313
313
321
322
346
348
321
324
322
327
243
662
381
313
307
312
323
333
357
385
399
409
390
344
317
313
318
320
333
354
340
324
321
322
322
212
663
336
307
304
310
317
329
351
376
388
390
354
310
291
291
293
293
307
322
305
295
294
293
293
243
650
296
281
280
287
299
312
333
360
369
370
334
294
285
291
293
299
315
330
311
308
313
317
298
448
545
316
309
318
329
338
352
380
404
414
404
363
335
328
330
337
356
365
348
343
347
349
339
446
614
346
339
344
351
362
378
401
424
435
424
381
352
346
349
356
365
371
354
345
349
349
332
463
584
343
334
337
342
350
363
388
405
417
411
368
335
327
330
330
332
347
342
319
318
317
315
221
660
340
296
296
295
304
311
334
360
374
380
354
310
286
281
285
286
299
312
305
290
290
291
294
213
657
303
280
281
289
299
318
339
363
374
374
343
302
292
292
292
302
326
332
309
302
298
306
286
439
548
306
301
304
318
329
341
370
387
402
387
348
321
316
320
326
339
360
354
336
341
343
349
241
664
378
346
347
355
361
373
393
417
431
433
400
358
345
345
346
347
352
367
362
343
343
343
342
247
662
379
328
324
328
336
346
365
388
401
409
385
340
321
318
317
313
314
322
339
319
312
314
314
314
323
611
313
297
302
309
318
329
352
372
385
382
343
306
291
295
295
295
309
324
315
298
297
299
299
184
662
314
280
281
287
299
310
331
355
371
372
342
301
280
282
282
292
318
323
305
293
299
301
287
417
576
300
293
299
310
325
343
370
391
404
396
352
323
319
321
325
333
351
358
338
334
337
339
305
557
541
339
329
335
343
352
371
395
416
424
411
370
340
335
333
337
337
346
365
355
339
340
345
346
248
663
351
329
328
333
346
355
377
402
414
419
397
352
336
332
329
326
315
323
326
332
327
316
321
319
233
660
331
311
307
319
317
341
355
386
388
391
365
330
311
311
315
319
323
347
342
328
332
334
334
260
659
390
325
323
322
335
347
371
393
410
413
392
350
322
320
318
323
321
341
351
335
326
326
327
327
324
656
330
317
323
329
336
350
372
390
402
395
355
318
305
305
309
312
328
338
314
308
310
312
295
423
545
307
297
301
306
315
335
357
377
390
385
346
310
305
304
305
309
326
335
314
310
315
318
303
417
543
314
305
312
320
331
347
369
392
400
397
365
331
321
322
321
323
329
338
325
305
303
303
300
212
657
300
275
280
283
286
301
321
344
354
359
329
287
269
270
273
273
284
306
298
284
281
287
292
198
662
330
295
293
301
317
334
359
382
397
407
383
343
323
321
327
331
347
367
353
347
347
346
355
243
664
375
347
334
349
358
374
394
411
427
425
394
348
331
331
332
343
354
376
364
347
348
347
353
245
663
360
333
330
337
346
358
372
401
416
417
386
348
325
326
326
327
340
354
342
333
332
333
339
229
663
349
319
315
323
333
344
364
390
404
404
375
331
311
310
310
310
310
323
338
321
318
318
322
306
402
564
308
306
307
317
329
341
366
389
405
395
354
321
313
314
315
314
318
329
343
321
323
319
322
318
384
571
318
307
312
316
327
343
365
392
400
392
356
314
304
302
305
309
316
337
331
318
306
311
311
251
612
405
304
296
304
316
331
355
378
395
402
385
341
315
310
309
320
320
345
346
321
319
323
325
286
547
500
311
305
306
315
328
349
371
397
398
387
339
309
306
305
311
313
335
341
321
320
326
328
306
447
573
319
314
310
322
328
345
370
389
402
392
353
318
307
311
315
323
339
351
333
325
327
327
323
310
660
322
311
313
324
336
351
377
402
414
407
379
334
324
324
326
336
359
357
329
326
331
333
276
614
495
318
306
313
325
332
354
378
396
405
389
343
316
315
315
317
326
348
335
323
318
320
321
205
664
344
305
303
311
320
338
359
383
402
406
377
330
308
310
308
312
334
343
319
301
303
308
305
294
658
304
292
298
309
318
335
358
382
394
388
354
311
295
303
300
305
337
332
309
311
310
313
223
663
394
306
304
305
326
338
357
387
403
412
393
346
324
328
330
332
342
361
359
345
342
347
348
264
663
440
336
329
342
349
359
382
403
424
427
409
360
340
334
335
334
334
352
353
332
324
325
329
268
615
456
312
303
316
329
337
361
386
402
413
396
352
319
320
319
319
331
348
340
319
314
316
320
205
664
340
307
305
305
316
328
347
371
384
391
367
327
313
316
315
317
336
347
326
318
319
322
314
418
611
331
327
330
337
348
360
381
398
413
409
373
337
332
335
334
337
356
345
326
328
334
332
236
661
349
315
320
323
329
342
360
383
394
395
372
319
297
294
297
294
310
314
294
288
295
295
248
547
398
294
281
293
298
308
331
356
377
380
370
321
295
285
291
303
324
333
309
303
311
310
270
548
463
308
307
310
322
335
354
378
393
402
394
345
319
320
313
322
345
344
323
318
320
319
271
590
462
311
305
309
314
324
343
366
382
394
377
330
298
297
296
304
319
338
320
306
311
313
310
308
648
315
299
302
313
329
347
374
395
411
408
374
335
329
328
330
335
353
353
340
333
338
344
258
662
416
336
335
338
347
358
377
404
419
424
402
355
327
324
325
326
334
352
337
325
326
326
332
274
660
324
313
315
320
337
353
374
401
415
412
378
340
325
324
330
340
359
363
337
336
338
340
278
638
481
334
327
336
344
357
378
402
420
428
414
366
335
330
331
336
348
363
345
331
334
334
333
281
663
332
320
320
330
338
350
371
393
402
402
367
322
316
313
314
317
319
338
341
321
321
321
319
219
663
373
302
295
300
308
317
337
364
382
388
366
321
294
293
294
297
295
295
305
326
310
304
306
309
305
339
616
309
296
303
312
321
338
360
387
402
402
366
326
316
313
319
320
318
320
327
343
330
325
320
321
314
348
599
310
302
302
307
312
333
357
378
385
386
352
308
293
293
298
296
300
319
334
322
311
309
313
308
310
633
317
298
300
309
323
340
366
390
402
400
363
319
308
311
312
319
333
350
335
317
314
318
317
239
662
315
297
294
297
312
324
346
371
382
377
343
298
284
286
288
289
300
319
313
300
295
301
302
207
662
353
291
290
298
306
321
346
368
389
399
379
333
310
313
313
321
325
330
347
357
339
337
343
344
299
583
521
340
335
339
350
361
375
403
425
438
429
386
353
344
342
344
345
343
343
360
362
341
338
340
333
245
662
379
318
312
319
325
335
358
381
400
407
391
345
313
308
311
308
314
317
331
348
334
325
323
326
324
294
657
319
308
312
320
331
347
365
390
401
399
365
319
307
300
304
309
308
329
339
326
318
316
321
318
284
659
318
299
304
314
320
338
362
390
399
403
366
327
314
315
319
320
324
331
353
346
333
333
336
334
231
663
352
327
322
336
343
355
381
405
422
428
403
356
338
334
335
335
337
344
358
357
339
335
335
333
234
662
364
312
309
314
319
330
351
370
390
388
366
316
290
289
290
298
301
307
328
316
300
302
302
304
199
662
310
291
288
297
307
320
346
371
381
391
363
315
298
300
302
308
320
338
328
312
315
318
323
212
663
341
311
310
318
328
340
367
392
407
411
380
334
313
312
314
317
334
349
338
323
328
327
331
233
663
340
316
316
320
325
337
357
378
392
393
360
315
295
294
294
297
299
314
317
292
288
292
291
232
570
377
276
271
270
279
289
303
330
349
361
349
308
282
273
276
282
287
299
314
300
300
302
308
307
363
593
316
309
314
339
342
362
386
412
428
421
383
346
332
334
333
348
368
354
342
348
355
356
270
663
361
343
342
352
364
375
399
423
434
431
400
358
344
340
341
365
376
360
347
345
351
346
245
664
348
326
321
330
337
351
370
394
406
407
372
325
306
305
312
325
340
334
311
313
310
312
202
663
343
299
296
301
311
327
349
374
391
396
370
328
312
316
320
326
338
357
346
327
324
324
319
201
663
334
304
300
307
316
330
353
379
393
399
373
332
311
316
322
320
329
345
339
325
325
328
330
229
663
363
328
327
334
346
356
375
399
420
424
402
361
340
339
337
339
346
365
354
339
342
345
346
265
662
351
331
335
337
348
356
379
404
412
415
383
338
314
315
314
315
323
339
319
312
312
315
314
306
608
316
302
307
311
322
335
359
384
393
391
361
323
305
313
311
323
342
344
316
315
320
320
259
629
416
310
313
318
330
342
356
383
402
404
391
349
319
316
318
322
343
352
335
324
327
333
331
340
658
331
324
326
335
341
358
381
404
416
411
375
330
322
320
324
330
346
344
327
324
328
329
273
597
453
317
311
313
321
330
344
368
386
392
377
336
305
301
300
299
305
321
323
303
301
303
304
245
589
395
295
293
301
309
317
337
363
384
394
381
340
314
311
312
318
318
331
345
333
328
325
332
330
262
660
332
312
311
321
335
343
362
386
401
400
369
326
310
309
311
307
317
339
341
320
320
324
322
250
640
395
310
307
315
325
336
359
385
400
409
396
356
325
321
325
328
343
364
354
338
336
341
339
237
663
374
331
323
328
340
352
374
399
415
415
396
345
323
323
325
327
339
352
339
324
326
329
326
288
661
328
317
314
319
332
342
369
388
398
397
360
317
304
303
307
305
315
331
317
308
308
311
314
213
662
321
294
296
301
307
321
343
371
385
392
363
322
304
302
303
305
303
322
335
319
318
320
327
318
371
614
322
315
318
326
336
351
374
399
411
411
371
333
321
318
323
321
330
351
345
334
336
333
336
244
662
375
322
322
330
336
350
373
400
418
423
403
359
331
327
327
333
340
362
363
347
344
349
351
295
645
500
343
340
342
351
363
379
401
421
425
413
369
339
331
334
331
336
355
357
339
330
328
328
312
424
591
316
305
308
317
323
343
364
386
395
386
347
310
300
304
303
304
309
325
326
310
309
312
315
233
655
381
302
296
303
313
325
344
374
388
396
384
339
312
310
313
316
315
327
344
333
323
324
326
325
228
662
336
312
315
320
331
343
364
391
407
410
380
340
318
316
317
317
311
315
333
330
311
310
310
311
217
661
339
292
286
293
301
314
336
365
374
383
368
325
289
287
289
288
294
303
325
318
305
304
305
310
206
662
330
294
294
307
315
326
351
379
392
399
377
334
312
306
313
316
329
350
350
326
327
330
330
250
662
428
324
317
327
336
353
372
398
413
415
399
353
327
325
330
333
336
359
365
350
346
347
350
325
470
599
333
327
333
339
350
370
393
412
425
416
371
338
330
331
330
328
332
343
360
341
334
335
335
332
344
652
333
320
321
328
335
348
373
397
412
411
373
338
322
325
320
324
324
322
336
345
333
329
327
326
321
300
648
316
300
295
301
308
320
343
365
382
386
352
308
295
292
298
300
302
316
326
320
308
310
310
312
205
662
326
293
293
301
309
323
343
366
385
383
362
314
290
290
295
301
313
338
331
315
310
312
312
240
648
412
300
292
293
304
315
327
352
367
375
351
302
272
266
264
264
275
290
282
263
255
256
254
176
584
319
232
227
234
240
253
275
301
324
329
316
272
248
250
258
266
275
289
314
309
303
311
320
325
223
663
359
331
333
345
361
377
405
435
455
465
436
398
378
381
380
382
379
394
411
398
388
390
394
395
296
664
405
373
370
380
387
396
420
447
459
457
429
382
356
355
353
360
368
383
387
366
361
365
363
338
538
610
352
347
348
359
373
385
413
428
435
429
383
347
339
338
338
346
366
362
342
336
338
337
293
584
515
329
318
325
332
342
362
389
407
417
398
355
321
312
307
308
307
326
331
312
309
310
309
293
392
557
295
277
284
284
293
314
337
357
367
362
317
278
266
262
262
273
295
298
286
279
284
291
261
490
499
294
282
291
301
316
337
359
381
384
377
334
305
302
307
310
323
343
330
312
311
311
315
199
664
376
312
312
321
331
341
361
389
402
409
388
344
325
328
330
334
343
364
350
334
330
332
339
211
664
391
320
316
321
329
341
359
382
400
402
384
336
317
313
311
311
315
340
336
313
316
320
325
247
662
439
316
313
319
323
337
354
379
398
408
385
346
316
308
309
312
316
339
333
318
321
321
326
238
662
367
309
310
310
323
336
360
385
396
399
385
341
313
311
312
318
346
352
332
324
329
327
324
356
643
319
311
312
319
332
347
373
397
406
405
366
324
315
317
318
330
345
339
329
326
325
325
249
661
397
320
314
324
338
354
370
400
418
424
401
356
328
318
322
324
339
361
348
335
336
340
339
244
663
345
317
314
325
332
349
371
395
405
408
380
332
317
314
314
315
319
336
345
327
325
325
327
272
579
450
306
298
297
308
314
332
358
377
390
375
333
299
296
292
298
301
321
327
312
306
306
309
293
408
559
306
291
299
306
320
333
359
377
385
379
338
301
288
289
290
302
330
327
307
306
302
315
278
551
504
315
316
321
334
348
374
399
421
430
417
383
352
344
347
352
372
381
362
345
348
346
343
342
663
346
336
340
348
361
377
401
423
432
428
386
345
336
335
333
344
364
356
335
327
334
339
257
662
459
324
323
324
339
339
359
381
397
403
380
335
307
303
308
315
326
353
350
335
332
331
329
242
663
425
309
304
318
333
349
369
395
412
419
404
361
337
339
337
337
337
358
352
333
326
331
331
287
564
577
319
310
315
321
332
346
368
384
391
384
344
319
318
317
318
315
322
342
328
312
306
309
311
188
664
337
294
293
299
311
320
337
360
376
384
366
324
306
307
308
304
309
333
324
309
307
307
312
229
657
397
299
290
299
307
323
337
366
379
389
371
331
303
296
297
296
306
321
310
296
292
298
295
198
660
324
279
285
282
293
319
329
345
360
366
346
306
288
289
286
301
323
316
302
291
284
275
271
270
574
272
267
271
275
285
298
316
339
341
346
318
286
283
290
294
304
317
328
312
307
311
316
257
617
400
321
323
335
338
357
382
409
429
435
433
392
365
363
365
375
379
398
390
378
376
374
375
302
662
464
365
359
368
381
390
402
423
438
438
423
375
350
350
350
353
367
381
359
344
346
344
345
246
662
347
328
320
327
337
351
374
395
409
410
380
337
319
321
319
336
350
341
317
318
319
318
217
664
361
311
314
318
326
339
358
383
398
402
381
339
324
326
327
339
357
355
339
332
340
342
280
631
454
327
320
326
336
345
363
389
405
412
396
350
318
318
318
318
330
344
334
320
315
316
309
218
663
336
302
291
298
307
320
343
363
372
379
359
310
288
287
285
295
325
323
303
300
305
304
261
551
478
298
289
297
307
320
340
368
383
392
376
336
309
304
309
314
333
347
332
323
325
332
330
251
662
328
317
319
329
338
352
379
400
415
411
382
339
326
330
327
326
339
350
333
324
324
326
329
257
662
329
314
316
320
327
343
361
384
400
400
366
323
312
308
311
315
317
333
335
320
318
320
321
269
569
447
304
297
300
305
319
338
359
380
383
371
328
295
288
292
287
292
298
325
308
303
301
305
307
205
661
319
293
292
302
311
322
352
374
389
388
365
323
301
302
302
307
318
342
339
318
318
323
327
249
661
422
322
319
328
342
351
374
397
419
422
405
362
335
333
335
340
348
371
368
349
350
350
351
293
640
494
339
329
333
342
357
374
397
419
422
410
363
336
331
335
335
338
349
365
358
346
344
347
347
236
663
369
327
324
332
341
354
374
400
414
421
393
352
329
330
331
332
331
340
354
343
332
332
333
333
230
663
355
318
316
322
326
339
353
374
389
390
368
322
300
293
296
298
296
302
315
319
300
294
297
295
217
630
343
279
281
277
291
298
318
338
355
359
342
298
266
253
255
259
258
274
289
273
262
266
270
271
174
659
292
264
268
272
286
300
325
346
362
364
339
298
280
280
289
296
319
329
315
305
309
314
320
256
661
326
313
318
328
344
362
384
409
425
423
387
350
335
338
339
348
355
377
373
360
361
365
367
274
663
459
356
349
356
364
377
396
421
439
441
419
375
349
347
347
351
348
353
374
371
350
347
349
347
271
659
460
328
316
319
325
331
347
369
386
391
375
328
296
293
289
292
288
288
295
314
303
295
292
296
296
189
661
312
285
283
291
299
313
330
358
376
384
361
320
302
303
303
306
314
319
335
346
332
330
331
336
325
400
620
337
330
332
340
352
368
390
411
425
425
384
347
340
340
341
340
342
356
370
354
346
347
348
350
279
662
356
341
344
347
357
368
391
415
429
433
400
357
341
340
338
341
341
350
362
355
343
344
345
347
248
662
361
327
328
332
340
350
369
391
405
404
381
337
313
309
307
308
309
321
327
312
308
308
309
289
418
503
296
286
292
299
308
322
345
367
378
373
331
300
290
287
291
301
314
308
295
293
296
297
203
654
335
288
284
296
307
319
338
366
382
389
367
323
299
298
300
318
337
330
312
310
315
316
243
650
390
312
311
318
327
340
361
391
406
418
398
360
337
333
339
352
376
363
348
348
352
353
259
663
437
344
345
351
366
377
396
418
432
437
413
368
343
340
340
350
365
358
340
343
347
344
256
663
419
331
322
335
341
352
370
394
411
417
395
353
328
328
325
328
337
351
339
324
325
327
330
228
663
335
310
310
313
323
336
355
381
398
401
376
333
316
316
316
316
323
338
330
317
319
323
321
217
662
337
300
292
298
304
314
331
355
369
368
348
301
279
273
272
273
267
285
291
273
268
265
268
238
435
411
255
251
253
259
278
293
315
331
342
338
303
268
264
262
271
282
307
311
292
290
298
303
264
543
469
312
305
317
330
346
366
398
414
423
420
378
349
344
347
355
376
386
376
364
366
367
375
278
664
381
363
365
373
384
396
419
440
455
457
425
385
370
369
370
375
386
392
374
368
369
368
347
479
640
349
342
345
352
357
373
397
415
426
415
374
337
329
320
321
323
339
349
332
329
330
332
321
362
633
323
307
307
312
320
332
357
374
386
384
345
313
298
299
302
302
307
326
326
309
309
315
318
223
662
362
305
301
308
318
325
347
370
386
390
373
329
306
299
298
301
301
302
313
331
319
310
313
315
312
296
637
308
295
298
302
313
326
349
370
384
387
353
314
302
300
307
308
310
317
334
335
320
321
325
327
229
662
354
315
312
317
324
335
350
376
391
396
372
328
303
302
301
302
301
306
317
331
320
311
314
311
312
306
618
309
301
303
308
315
331
357
374
386
381
354
307
299
298
298
302
303
309
330
323
311
304
308
310
204
662
351
308
308
314
322
339
363
390
403
405
385
339
314
317
320
323
336
358
353
335
336
339
339
241
664
410
333
332
337
349
363
385
412
431
431
411
365
341
339
341
346
352
369
373
356
354
355
356
306
599
555
345
338
340
347
358
374
400
419
428
412
367
333
327
326
324
329
335
347
330
320
321
320
311
341
604
301
286
287
291
297
313
335
361
365
359
322
279
268
272
272
276
293
300
281
280
282
289
261
452
452
288
278
286
294
308
330
356
370
385
371
335
301
297
291
305
332
340
321
311
317
319
325
255
663
331
313
317
328
340
356
382
404
417
414
377
339
327
324
333
356
365
348
336
339
342
343
293
663
344
330
334
338
350
364
388
409
423
420
386
344
335
334
336
346
362
351
335
335
333
337
230
663
352
324
323
325
336
349
371
393
410
408
381
338
323
319
320
326
342
346
331
328
327
329
292
532
524
321
317
322
332
343
363
391
411
420
412
370
342
338
339
341
345
360
365
351
353
355
358
325
552
560
343
333
336
341
345
361
381
401
407
398
351
319
304
306
302
310
324
317
300
293
294
295
233
575
375
282
274
277
289
298
319
345
365
370
356
313
284
281
285
290
308
321
306
295
298
300
300
210
661
309
286
289
298
314
327
351
374
387
389
356
314
302
303
306
318
339
344
323
322
323
327
284
558
516
324
314
317
328
335
349
372
393
399
382
342
308
303
307
307
309
327
331
313
306
310
316
258
584
437
306
295
300
306
320
335
362
383
392
379
336
310
305
307
310
310
324
339
324
318
324
326
324
314
652
323
314
316
321
329
341
362
388
398
400
358
323
312
312
315
311
318
328
338
322
318
319
318
296
453
524
314
314
315
322
337
350
370
390
399
397
356
319
305
306
313
316
327
348
349
329
328
327
330
249
662
417
324
320
332
337
351
373
398
415
425
403
362
337
334
333
337
346
369
364
346
341
343
346
244
663
417
333
327
334
344
358
378
407
423
428
411
360
340
338
340
340
344
354
368
357
343
345
346
345
279
663
348
331
331
341
347
361
381
405
418
419
386
347
332
327
326
328
323
329
347
338
325
328
329
330
221
663
341
314
310
314
323
337
360
385
402
410
387
341
321
318
319
317
314
320
331
338
322
322
318
314
289
472
494
302
292
299
306
316
330
354
373
382
374
336
301
286
287
288
293
301
322
323
302
299
298
297
247
552
431
294
290
295
305
322
341
362
385
391
379
335
308
303
307
314
323
345
348
326
323
325
325
291
545
545
327
320
324
334
346
367
388
410
420
408
365
332
324
329
333
334
355
357
337
332
335
335
304
527
565
324
317
317
328
339
357
383
404
411
399
358
326
321
320
323
323
335
348
338
327
325
331
329
227
662
334
311
307
313
320
333
351
375
390
390
359
316
295
293
289
288
290
300
306
287
278
275
273
256
355
494
256
240
242
248
254
265
291
311
322
317
284
248
239
245
251
257
264
283
288
277
281
288
294
244
572
413
302
303
313
324
337
360
388
409
421
413
373
344
342
346
353
357
362
379
396
385
378
386
389
381
396
662
378
372
371
377
388
398
421
441
450
450
414
375
356
355
357
356
356
364
378
359
353
351
349
346
345
649
342
327
327
335
344
355
378
399
407
408
379
337
318
316
318
325
341
354
340
326
328
332
333
239
663
341
317
316
326
330
347
366
387
398
401
368
326
312
311
313
322
341
348
331
321
327
329
322
383
636
326
316
317
327
335
353
377
399
411
402
366
333
321
323
322
323
332
350
343
327
328
332
330
225
663
373
313
311
314
323
333
352
378
397
401
379
335
315
310
309
313
315
322
341
327
320
322
325
324
225
663
334
306
304
316
324
335
356
379
397
398
371
329
311
310
310
311
312
328
343
325
322
324
330
322
356
631
319
309
312
319
330
345
367
392
401
398
364
327
319
318
319
325
337
348
333
327
329
332
329
342
642
326
316
317
321
327
340
364
385
395
392
354
322
308
308
308
317
328
318
302
300
298
297
198
659
322
284
280
286
292
305
325
347
364
367
344
302
284
282
283
291
301
322
298
295
295
299
300
242
651
310
294
296
305
318
336
360
384
397
402
373
334
323
327
333
345
368
373
360
356
358
365
361
393
661
361
361
359
369
381
397
423
445
457
457
423
384
375
377
378
386
397
408
387
381
385
383
381
363
663
366
360
358
362
369
379
401
422
436
430
397
357
340
337
335
335
336
351
350
332
327
327
326
282
539
473
314
300
302
309
317
334
355
377
387
377
340
306
298
299
299
300
304
317
325
312
306
312
312
297
415
527
307
288
292
301
311
327
342
368
379
376
339
298
290
286
290
293
298
315
315
299
297
300
300
242
572
391
287
278
285
296
310
325
350
361
371
361
315
285
281
280
292
299
319
324
305
300
302
303
299
351
608
310
297
303
311
322
340
366
383
390
388
351
315
306
308
314
325
345
346
330
327
329
336
311
475
605
332
329
332
343
354
372
395
418
429
423
386
354
348
350
354
360
375
387
371
364
368
366
369
353
662
363
353
354
362
370
381
403
426
439
438
406
364
352
353
351
348
349
365
366
349
344
345
346
303
545
525
329
318
322
330
340
352
375
394
405
398
357
317
311
308
308
309
310
326
328
311
308
309
306
276
461
481
295
287
292
299
312
320
343
360
371
365
324
289
283
282
283
284
289
301
307
292
293
295
297
281
432
475
293
282
291
299
310
328
352
371
381
379
345
309
295
297
302
304
314
331
333
319
315
319
321
256
628
425
312
312
319
328
337
361
381
400
402
390
348
317
307
306
308
316
338
339
313
307
307
309
269
490
498
291
280
283
289
300
311
336
353
360
349
307
272
265
265
271
275
287
302
287
277
280
287
286
196
661
300
279
278
292
303
320
343
374
388
394
373
331
318
325
331
335
338
352
371
362
356
360
366
365
263
664
393
363
359
367
377
389
413
436
454
461
440
398
379
379
378
382
381
383
399
399
382
380
380
379
313
658
518
362
355
356
364
368
388
402
420
425
409
368
326
318
319
315
315
317
331
338
318
313
311
310
282
445
477
297
282
287
293
301
321
340
361
365
358
321
280
272
272
275
281
308
308
293
287
285
289
294
236
658
306
294
293
304
317
338
359
388
400
397
369
328
316
312
321
331
352
360
338
335
340
336
335
365
658
338
331
330
340
353
371
395
417
423
422
379
342
331
326
330
336
356
361
340
335
336
335
332
358
657
328
319
322
332
342
360
383
405
418
414
379
339
329
327
331
332
339
361
348
337
340
340
340
231
663
383
324
317
322
331
342
358
383
398
400
381
339
309
306
308
308
305
308
330
322
309
306
308
309
233
642
399
296
290
295
305
318
338
362
382
389
378
337
308
303
305
304
307
313
325
337
324
320
323
326
319
333
642
319
312
314
324
335
349
372
394
407
409
379
340
325
325
326
329
327
337
354
344
336
335
337
336
236
662
356
322
318
323
334
343
360
382
398
408
385
341
316
310
306
307
307
313
327
327
309
306
307
306
243
580
388
289
284
289
297
304
323
342
361
368
360
315
282
274
276
278
278
286
306
293
286
286
290
289
199
657
323
282
278
293
299
311
334
358
374
377
358
315
286
285
292
299
317
337
328
316
316
326
328
237
663
395
330
327
334
347
361
381
407
422
428
410
363
342
338
342
352
373
379
360
350
353
356
352
354
662
353
344
345
350
360
370
393
414
425
419
381
340
324
323
323
321
334
339
318
306
304
304
304
240
661
313
296
287
287
285
288
305
329
348
355
330
292
284
283
283
278
274
283
291
274
274
281
291
294
318
636
305
292
291
297
310
327
358
390
414
419
387
350
331
327
322
327
329
345
362
356
354
357
368
365
286
662
368
343
339
348
352
368
389
417
426
433
404
357
333
327
329
324
322
331
343
340
327
322
324
324
262
622
419
316
309
311
323
333
357
382
401
414
401
359
324
318
315
319
326
349
355
338
331
337
339
331
366
659
329
321
321
331
346
359
389
411
425
422
385
346
336
334
336
336
343
366
358
343
343
347
349
268
662
457
334
326
330
338
345
366
390
410
417
405
360
333
330
328
325
330
334
350
347
333
333
337
337
272
629
459
319
313
320
327
337
355
378
399
405
397
352
318
310
309
308
305
304
315
331
318
310
313
313
309
250
658
306
289
293
300
310
322
342
365
380
382
352
310
288
287
287
290
287
290
314
316
300
298
299
300
258
492
433
286
279
285
292
304
322
342
364
375
370
334
293
278
280
281
286
295
312
305
290
290
295
296
224
659
382
307
308
319
335
348
367
390
405
415
401
359
331
331
332
340
354
376
371
353
352
354
357
313
601
590
356
352
356
367
378
394
418
435
447
436
394
364
356
355
359
361
376
380
363
356
360
359
349
374
661
340
330
333
339
346
356
380
406
414
410
375
337
325
326
328
327
328
344
346
329
328
327
329
305
455
561
316
309
313
318
329
345
368
388
400
396
357
318
306
304
305
299
300
310
322
308
303
301
301
298
218
659
294
272
271
275
283
293
311
336
349
352
329
283
263
261
264
262
264
274
289
284
271
274
279
279
207
599
346
275
270
276
293
308
325
353
373
381
376
335
300
298
299
304
310
314
336
341
327
325
327
331
303
497
501
323
315
316
327
337
355
376
397
408
403
361
326
311
314
316
322
338
357
338
334
339
338
340
232
663
359
324
328
332
345
356
378
403
422
426
405
362
341
340
341
345
350
371
370
353
348
353
353
309
579
562
346
340
345
353
365
382
407
424
435
424
381
349
343
341
346
343
345
362
366
346
343
345
344
320
461
598
331
322
327
337
346
358
381
404
418
413
375
340
327
325
324
327
325
333
351
336
324
325
326
327
239
662
334
309
307
318
326
339
359
379
394
397
370
329
304
302
300
310
303
310
326
323
305
305
303
306
255
560
400
293
285
288
297
311
325
353
369
378
362
328
288
278
273
279
283
307
312
292
286
288
293
296
214
660
306
287
288
298
308
328
354
374
385
385
356
313
297
296
297
309
331
329
311
304
309
312
307
310
657
309
302
304
315
330
344
368
390
403
405
371
331
318
319
324
333
354
362
344
340
342
344
343
334
661
341
330
335
341
352
372
391
416
431
431
396
356
346
349
346
349
354
371
369
350
351
353
354
287
655
490
340
332
337
348
359
376
402
421
431
423
381
350
342
342
345
343
348
365
352
337
334
340
335
232
662
366
318
311
315
322
330
353
368
388
391
374
326
294
293
293
292
290
300
318
313
300
296
302
301
215
658
347
292
289
292
299
320
336
361
376
382
363
323
292
292
296
300
309
329
336
317
316
316
326
320
377
642
332
323
329
336
348
364
388
411
422
422
386
347
338
339
342
347
365
373
355
348
351
350
350
291
663
343
333
331
340
350
364
384
408
422
420
388
344
333
333
334
336
338
349
359
344
339
339
344
336
387
649
336
326
329
334
340
355
374
394
407
407
371
331
316
319
310
313
308
315
328
314
304
304
304
309
207
661
329
293
289
294
306
309
328
351
361
372
351
310
281
274
274
277
274
287
298
297
281
279
281
285
207
635
345
284
285
293
303
320
343
370
390
398
388
349
316
311
314
323
330
356
362
347
342
344
344
341
390
659
339
331
337
345
354
372
393
415
426
424
389
350
337
338
335
341
343
363
350
335
331
336
334
256
659
427
319
313
318
326
339
357
383
401
408
393
351
323
317
316
317
315
317
332
334
321
319
325
323
297
481
526
312
304
309
316
327
346
366
388
401
395
361
324
311
316
315
320
319
328
343
334
325
327
332
332
232
663
356
316
313
322
327
343
360
387
407
409
393
343
314
306
307
309
309
314
333
323
310
312
317
313
225
659
352
299
300
299
310
325
345
365
383
389
376
331
299
293
296
303
308
322
334
322
315
315
322
325
237
663
338
317
317
330
338
351
375
398
415
422
393
351
327
328
334
335
345
365
360
345
342
346
348
282
647
507
337
331
334
347
354
376
400
418
428
416
374
341
337
339
340
339
339
348
365
350
344
344
344
345
257
663
342
323
319
327
334
345
368
392
408
413
384
342
321
315
317
316
316
316
323
339
325
318
319
320
320
221
662
332
306
303
311
320
332
354
377
397
403
383
341
318
311
310
313
308
318
319
337
327
318
318
320
320
222
661
334
297
299
308
318
327
347
373
383
389
366
322
291
286
281
283
286
299
309
298
290
287
288
286
192
655
313
267
264
274
282
294
316
339
354
363
345
307
279
277
282
290
297
320
328
310
305
313
314
313
309
657
319
308
310
319
331
347
369
392
409
409
376
335
318
317
320
321
328
346
349
332
328
332
333
315
452
612
320
315
318
326
336
354
381
400
415
412
376
338
328
330
330
335
337
343
367
363
352
352
358
358
279
662
470
352
346
354
363
374
393
420
438
448
434
394
364
356
357
359
359
358
359
376
377
364
360
362
360
339
482
608
341
332
336
345
354
367
391
410
421
419
384
343
330
331
329
328
326
330
345
347
332
326
333
335
308
451
545
323
311
317
327
331
345
367
391
396
394
359
320
302
299
301
303
303
316
328
311
309
307
306
305
221
656
311
284
288
291
302
312
335
356
367
368
348
299
272
270
274
277
282
304
311
295
291
293
297
296
228
658
312
292
298
305
320
336
360
386
405
406
380
336
319
320
319
328
340
361
351
337
337
337
340
263
662
457
339
337
346
356
367
383
408
429
432
420
375
343
338
338
341
342
351
371
362
346
345
346
345
260
662
441
332
327
330
340
348
365
388
406
417
405
360
327
324
322
318
316
325
340
320
308
308
305
305
201
662
320
285
282
283
289
302
319
346
365
368
342
297
271
266
268
267
277
294
295
271
268
273
274
245
461
441
276
268
274
283
297
317
345
366
378
370
334
295
287
291
294
306
328
328
305
310
314
315
302
429
593
319
307
316
326
338
357
379
404
415
413
376
341
332
332
338
339
356
366
352
344
347
350
350
253
663
365
341
341
346
357
373
392
419
430
437
416
369
348
348
347
347
351
368
368
353
350
351
353
336
439
632
339
332
331
342
351
365
389
409
422
419
384
344
334
332
334
332
334
350
356
342
338
340
339
323
429
602
332
327
328
336
344
361
384
408
419
415
381
339
327
325
325
326
326
329
348
336
326
324
324
321
234
657
365
299
293
296
305
317
329
356
374
382
371
327
290
282
278
284
285
288
304
311
297
294
294
295
289
358
555
299
282
287
297
308
324
347
366
379
380
350
305
289
290
296
299
314
335
330
315
317
324
324
252
660
422
323
318
326
337
349
373
397
418
427
412
369
334
329
332
335
345
369
367
349
346
349
351
329
487
616
341
336
336
345
354
373
393
416
429
419
378
339
327
330
328
326
327
343
347
332
324
323
324
316
355
627
308
298
298
306
313
331
352
373
389
389
355
310
295
293
295
296
293
303
315
305
295
293
296
295
193
661
325
278
281
284
296
309
329
359
368
375
356
316
282
277
280
284
286
303
321
304
296
297
299
299
202
661
324
290
288
301
310
324
350
372
386
391
368
332
305
303
309
311
329
350
351
329
331
335
339
292
587
529
331
329
333
342
355
370
394
415
425
413
370
334
326
325
326
334
353
354
332
330
328
333
310
461
597
319
312
311
319
330
348
372
396
405
399
356
320
311
311
310
312
324
339
327
315
318
320
319
215
662
359
309
305
314
322
338
357
383
402
407
390
344
319
317
318
319
324
335
341
325
320
321
320
310
370
613
313
301
303
311
323
337
361
384
400
394
357
319
303
301
305
302
307
322
327
310
305
310
311
291
448
516
304
294
300
311
320
336
362
385
393
388
355
314
298
301
306
311
318
340
343
327
332
329
334
290
586
523
333
331
337
348
362
382
406
424
437
426
388
349
341
339
345
349
366
375
361
355
355
354
355
281
664
357
346
345
349
361
375
398
424
435
437
410
364
341
342
345
343
348
361
368
354
352
350
349
335
420
643
337
328
331
338
344
361
386
405
420
418
377
335
322
320
316
318
317
323
335
325
315
315
314
314
253
658
310
292
286
294
303
318
339
361
371
374
348
295
273
269
268
269
275
288
302
284
279
279
280
274
234
638
282
264
261
271
282
304
330
355
368
369
334
291
281
276
274
284
307
314
296
290
296
299
306
245
661
315
302
303
312
330
344
374
400
409
410
378
339
322
324
328
340
368
356
339
341
339
343
263
663
486
335
330
338
351
364
389
417
434
443
422
377
345
339
338
343
355
370
350
341
340
342
346
231
663
361
330
328
337
347
358
385
407
422
425
398
349
331
325
325
326
331
351
345
327
325
327
325
263
617
469
307
300
303
307
320
339
365
383
392
380
335
303
294
295
294
292
299
316
320
307
306
310
309
265
538
478
299
292
297
311
322
342
371
391
403
395
360
319
313
311
311
311
313
331
335
322
319
322
322
298
468
549
314
306
306
319
331
348
374
395
405
401
365
329
315
317
314
319
322
334
340
330
327
327
331
311
429
585
318
309
312
323
336
349
373
394
405
407
370
330
317
319
315
319
321
340
346
333
328
328
333
317
418
601
326
316
317
329
339
354
380
405
416
414
380
339
325
325
325
333
351
346
331
329
332
333
254
656
400
318
314
316
324
337
352
373
389
395
375
331
301
294
292
291
296
306
287
275
275
270
267
230
576
254
234
231
234
239
253
274
296
307
306
277
233
224
223
227
229
250
260
249
250
253
258
258
356
492
277
269
276
290
304
326
351
377
387
388
360
323
316
318
330
339
367
370
352
357
362
365
319
630
582
363
365
369
383
394
414
439
459
471
461
416
385
378
377
382
401
408
386
381
375
380
375
355
663
365
357
359
369
379
395
415
437
445
442
407
360
346
347
345
351
368
372
358
347
346
349
333
432
633
333
329
327
337
346
362
389
409
420
418
382
342
330
333
330
331
336
351
356
341
336
337
335
308
490
545
327
318
323
331
341
358
384
404
416
413
379
337
326
328
328
328
326
334
352
345
333
331
334
334
230
662
359
317
311
317
326
336
357
382
395
400
384
339
308
304
303
304
299
306
317
324
302
302
301
298
258
500
425
284
276
283
286
298
314
338
352
360
355
312
274
258
259
258
262
263
280
284
269
266
268
267
240
421
432
263
254
258
269
278
297
320
342
352
347
314
275
265
265
273
282
297
315
306
294
298
302
307
197
662
337
305
304
315
327
339
364
387
407
410
390
347
326
324
329
333
341
364
363
346
346
349
348
297
620
524
342
335
339
351
358
381
407
426
438
429
386
352
344
346
347
350
358
375
368
355
354
355
356
255
663
405
336
331
338
346
358
376
399
419
424
405
361
336
330
331
331
329
331
344
353
340
333
333
335
329
364
634
327
313
312
319
327
341
362
384
398
399
361
323
304
307
304
305
304
317
331
309
310
302
300
299
258
629
304
277
281
287
295
308
326
346
357
352
327
287
270
260
269
271
281
296
291
273
270
273
275
191
614
343
269
260
264
274
289
311
332
349
357
344
305
277
271
277
283
306
320
309
301
300
306
315
204
663
346
313
316
324
336
352
379
410
424
431
407
364
348
347
347
352
365
382
370
357
359
361
362
254
664
385
348
342
349
355
367
387
412
426
429
402
357
334
329
328
326
326
334
345
329
321
322
324
319
306
655
312
300
298
308
313
328
350
371
386
389
357
317
302
299
296
297
295
303
320
303
299
296
300
302
258
645
304
289
290
301
309
323
346
370
380
384
360
319
298
300
300
304
312
334
325
314
313
317
320
257
640
435
342
342
348
361
373
399
428
452
464
457
418
390
388
391
393
405
423
419
398
397
398
394
329
662
564
368
362
364
367
380
394
423
439
444
428
385
347
345
341
341
343
357
364
344
338
339
338
312
462
556
315
305
303
309
318
334
357
375
383
374
334
290
279
277
279
280
295
309
296
286
286
288
292
211
658
298
280
283
289
299
313
338
361
375
376
347
305
286
289
290
305
325
334
314
308
306
312
311
231
662
324
310
314
323
333
346
365
391
404
400
379
335
326
324
326
333
344
359
348
337
337
342
347
233
664
380
335
333
336
350
367
383
414
430
433
411
366
343
342
342
344
347
367
369
352
349
352
353
316
544
566
339
331
334
342
351
366
393
412
421
411
370
337
330
328
326
324
325
336
346
326
322
321
319
301
389
571
309
292
299
307
315
329
358
378
383
385
345
307
293
289
290
293
297
314
318
300
294
297
300
264
479
452
287
275
279
287
299
311
332
351
356
351
311
272
264
261
268
277
303
302
285
277
286
289
254
473
474
285
276
281
291
306
326
355
376
386
382
344
312
302
304
308
325
344
341
329
329
338
337
275
651
480
333
328
335
347
359
382
410
431
439
429
384
358
352
354
355
362
379
387
369
365
368
368
336
543
607
354
348
356
361
371
387
416
435
448
438
399
364
354
353
355
352
364
372
359
347
347
350
342
332
659
334
323
321
330
334
343
368
388
393
391
347
306
286
280
281
280
292
306
287
275
275
275
272
168
659
283
248
251
256
265
281
302
328
339
341
318
277
260
257
265
274
307
303
287
280
288
288
269
463
540
302
291
301
316
327
348
375
397
408
402
362
327
324
324
330
343
364
351
340
342
340
347
228
663
379
326
325
332
338
353
376
402
416
420
397
348
330
326
330
333
342
366
353
345
346
350
350
239
664
392
341
334
339
346
358
381
406
422
426
405
361
343
341
340
342
350
363
357
339
341
347
346
251
663
394
333
327
336
338
349
367
390
405
407
390
348
322
317
318
317
320
335
339
322
321
317
321
273
571
440
309
298
303
310
318
341
364
378
384
370
334
292
289
284
287
297
318
311
294
292
290
296
198
661
339
286
285
293
307
319
338
360
373
378
356
315
292
290
297
305
331
335
317
311
317
319
299
446
592
316
306
311
321
336
355
378
403
413
403
365
328
321
322
327
344
364
347
337
337
338
341
227
664
349
318
314
319
331
344
365
388
400
401
377
334
313
314
316
319
332
339
327
317
318
319
319
288
662
314
301
304
311
321
338
359
383
396
396
363
322
310
311
309
313
323
340
325
317
322
325
328
262
662
322
307
306
316
327
340
362
388
400
397
370
329
316
318
316
316
317
336
335
319
313
318
316
247
623
431
301
290
296
301
310
324
348
363
373
362
320
289
282
283
285
288
302
306
290
288
291
290
277
386
535
287
277
277
289
297
316
341
366
379
377
340
309
297
302
303
305
308
318
332
314
314
320
318
293
487
502
315
305
307
315
326
345
371
391
405
394
355
318
304
300
303
306
316
330
324
308
308
314
313
216
663
358
315
318
333
345
358
383
409
423
431
409
367
343
339
340
343
365
377
358
348
349
345
348
250
663
343
327
320
327
340
358
385
413
423
418
382
336
320
317
318
325
350
361
342
337
336
342
331
409
660
321
319
317
329
341
360
386
406
418
410
367
338
332
331
336
338
356
356
332
322
321
321
302
449
631
315
311
316
326
337
357
375
399
407
400
360
324
314
308
308
304
322
321
301
292
296
299
263
513
520
295
288
294
304
314
328
354
375
385
383
345
313
308
310
309
314
327
324
305
296
298
299
215
658
362
283
276
282
286
293
306
323
336
341
330
294
271
266
265
272
288
300
281
269
265
263
261
225
607
274
268
275
292
299
314
336
358
366
370
346
304
293
289
295
313
330
327
318
323
326
334
244
662
362
334
337
340
354
367
390
409
421
429
407
367
348
345
350
364
381
370
354
353
356
356
257
663
396
346
350
351
363
375
396
417
428
433
409
361
340
340
342
357
372
368
352
347
348
344
241
663
388
328
322
330
341
354
373
395
409
413
389
342
322
321
318
322
341
335
315
307
306
309
250
584
458
294
287
294
303
316
336
358
375
383
367
331
307
302
301
303
312
332
335
315
314
320
328
241
663
398
333
333
337
345
355
365
387
399
404
389
349
323
323
322
330
339
358
344
328
328
328
330
232
661
340
314
312
320
331
341
361
379
389
389
366
323
304
306
308
320
346
349
323
324
327
325
250
659
412
322
315
324
333
347
368
392
409
415
396
357
329
322
327
339
359
354
336
331
334
336
245
662
408
324
319
322
337
349
366
392
407
409
386
347
322
318
314
319
335
341
324
315
318
320
301
456
577
312
298
299
305
312
334
360
378
391
383
339
298
289
283
285
295
314
309
295
298
302
297
186
663
312
267
264
272
287
309
333
360
379
383
361
316
301
307
310
319
331
347
339
327
326
326
321
219
662
339
303
300
309
323
330
357
380
394
403
376
334
316
312
313
319
331
350
342
323
323
326
326
221
662
338
314
311
321
328
344
364
391
401
400
374
332
315
314
314
324
341
350
330
323
324
327
322
361
647
321
309
315
321
335
351
378
399
407
402
362
328
316
315
316
320
333
348
334
323
326
330
329
292
663
328
310
306
318
324
341
364
383
399
396
359
320
306
306
308
309
306
321
337
323
317
321
329
321
307
654
313
301
308
321
332
351
371
392
400
395
356
311
300
301
306
309
310
328
338
321
313
317
317
293
465
533
308
299
301
313
323
338
366
383
394
386
343
309
303
304
306
307
311
318
341
337
331
331
332
327
221
663
320
293
294
304
319
341
365
398
414
426
397
355
333
331
320
321
319
321
335
336
323
320
322
324
226
662
360
300
296
303
309
321
345
370
384
389
369
321
296
294
293
301
295
314
328
319
300
302
297
300
200
661
311
280
281
291
300
319
335
364
372
370
340
295
276
274
279
279
287
307
312
291
285
287
287
255
459
481
279
271
275
284
296
312
338
361
369
362
320
287
286
288
293
299
302
316
335
329
322
325
332
336
266
662
339
326
326
336
347
364
387
413
430
434
404
365
353
347
348
351
347
345
362
373
353
346
351
349
331
452
611
340
328
335
340
350
368
391
408
417
410
369
334
318
320
317
324
325
338
354
335
321
322
323
323
263
660
321
301
307
317
327
345
367
389
399
400
367
325
314
312
316
319
330
351
345
328
323
328
328
241
662
427
315
310
316
328
337
359
386
403
411
389
345
316
313
312
317
318
333
344
331
318
321
322
320
274
661
316
300
301
311
323
338
359
386
396
395
362
319
311
301
306
310
307
320
336
324
312
315
313
311
203
662
310
283
274
278
291
292
313
335
350
345
313
267
236
236
229
232
227
232
245
251
234
225
225
224
196
366
406
216
204
213
221
236
259
284
307
320
321
288
255
252
257
266
276
289
317
318
305
311
317
322
244
662
444
334
334
347
360
378
400
424
445
454
441
396
376
376
377
383
384
394
417
413
403
406
410
409
308
664
530
394
390
398
407
420
439
467
482
483
463
416
396
387
384
383
380
384
401
395
373
373
370
370
299
653
498
336
325
326
331
337
352
370
391
394
378
333
301
294
294
288
289
290
304
326
318
304
310
310
314
208
662
342
299
299
311
317
334
352
380
394
398
378
337
315
307
312
321
325
336
359
354
337
341
342
344
252
663
427
341
340
348
359
373
400
423
441
447
424
379
352
349
351
354
360
384
380
357
356
352
357
312
562
589
338
328
329
340
347
362
389
409
420
410
362
327
312
315
312
315
322
351
346
335
334
336
338
233
664
410
319
312
316
327
343
364
391
407
408
387
342
320
322
317
319
316
329
341
325
311
318
318
311
304
659
301
292
292
303
318
331
355
373
390
385
352
311
298
297
288
286
289
301
309
292
290
289
289
252
485
434
275
270
275
287
308
331
357
381
386
381
340
303
297
294
296
300
311
328
318
309
310
316
314
295
657
316
304
310
319
329
345
365
388
396
391
359
322
311
310
310
316
331
342
329
324
331
330
322
386
595
327
309
313
318
328
343
363
384
394
386
347
313
300
298
299
299
316
326
303
297
298
300
290
308
567
291
273
276
278
292
307
322
344
349
338
304
269
252
252
256
263
290
280
257
254
257
262
191
590
348
259
262
265
274
290
306
330
350
351
336
300
278
274
284
294
321
319
302
297
300
306
243
610
431
302
299
306
316
332
348
379
396
397
383
337
315
314
313
324
349
353
330
326
327
328
301
527
575
328
325
332
347
364
384
406
422
418
400
354
324
324
325
337
351
381
388
367
366
364
361
331
525
651
335
332
336
345
356
371
396
417
425
415
370
341
333
332
333
336
339
354
356
339
331
333
336
293
573
559
325
325
327
340
346
360
381
402
408
395
357
320
317
320
321
324
325
329
347
341
323
324
325
323
221
661
326
299
294
307
312
328
349
375
388
389
364
318
293
290
285
291
292
304
319
321
303
303
303
305
206
661
334
285
283
288
301
310
330
353
366
370
343
296
272
266
265
271
284
302
306
286
279
286
282
226
564
392
274
261
271
283
297
318
344
367
372
356
315
287
284
288
291
309
333
326
312
313
316
319
231
661
398
312
308
318
330
346
372
397
420
430
404
362
342
339
342
343
350
363
382
377
366
368
370
370
273
664
432
358
353
359
370
380
401
426
441
449
423
376
352
349
346
350
349
350
358
377
368
354
356
358
359
271
663
360
345
341
350
359
372
392
414
426
428
398
352
333
331
327
328
329
330
337
357
348
338
336
336
334
230
662
345
314
309
327
328
346
367
384
417
409
383
336
317
309
308
308
305
317
331
317
309
309
308
304
254
653
303
282
284
284
300
314
340
370
368
364
328
292
274
269
274
283
306
317
305
303
305
306
307
341
653
318
306
311
318
329
347
374
395
410
401
366
328
318
319
323
329
356
347
322
320
324
320
276
606
587
316
308
314
322
336
350
377
394
401
388
348
320
319
322
324
326
344
342
321
318
319
325
299
504
594
310
301
307
317
332
352
380
398
410
405
362
330
327
324
324
322
335
351
337
324
327
330
336
224
664
356
320
312
319
330
343
364
389
404
409
385
340
319
314
317
316
313
324
337
324
315
308
311
309
206
661
316
280
275
276
280
287
309
329
341
332
305
255
223
220
217
213
215
219
239
236
215
216
211
215
152
531
288
207
204
213
226
244
268
293
320
327
326
287
262
262
268
282
299
327
333
318
320
327
338
316
511
615
347
346
354
368
383
399
426
453
460
449
411
379
369
371
373
380
401
407
387
382
381
382
374
428
662
364
355
358
367
374
391
417
437
450
443
402
363
356
357
358
364
378
389
369
360
363
369
376
264
664
399
355
351
359
368
381
407
434
446
452
426
388
376
378
376
376
379
392
401
378
371
372
374
372
356
664
358
345
345
352
363
374
396
418
432
431
395
354
341
339
342
339
341
352
365
345
332
329
333
324
238
663
319
300
304
305
314
327
345
363
377
377
347
298
279
273
270
269
264
279
279
257
251
247
251
229
352
438
230
223
234
254
273
298
323
349
357
355
317
282
275
281
286
296
316
325
310
306
307
313
311
303
662
315
307
308
322
338
350
369
395
404
405
371
338
332
337
339
344
361
367
345
339
342
343
341
338
663
336
330
335
340
351
366
390
407
421
419
386
353
344
346
344
346
358
364
344
334
335
338
338
295
663
330
320
319
327
335
350
372
393
404
405
373
334
326
328
327
328
344
353
333
330
328
333
335
310
662
327
324
324
332
343
360
382
404
416
416
380
344
335
333
335
334
344
365
350
342
345
342
345
252
662
352
330
334
342
355
367
385
405
426
425
397
359
338
333
332
328
338
350
333
320
326
323
321
232
660
331
301
296
304
307
322
339
358
372
372
347
305
289
279
280
289
312
316
293
293
295
293
280
371
531
297
287
291
300
311
334
355
378
385
384
352
317
309
315
324
350
351
332
329
333
334
324
404
650
330
324
324
329
338
353
376
395
400
397
358
325
315
310
314
328
334
315
302
302
306
308
247
663
307
294
294
297
307
316
341
363
375
372
335
300
291
294
294
303
322
309
293
296
296
300
185
663
341
298
294
304
316
330
353
382
397
405
382
335
322
323
327
328
335
359
361
347
344
348
349
289
639
490
345
339
345
359
368
389
411
433
443
427
391
362
357
356
352
356
360
379
373
360
356
359
353
257
663
393
337
335
339
351
360
380
400
414
416
392
345
320
314
315
319
324
345
346
326
325
320
321
311
377
593
310
298
301
312
321
343
367
388
393
390
349
312
298
299
305
314
337
340
320
315
317
319
284
508
535
313
302
304
312
322
336
364
381
386
372
326
292
282
281
281
286
301
307
291
282
283
282
272
330
573
275
258
256
266
277
291
318
337
350
339
302
268
258
261
266
271
292
308
299
293
296
305
309
232
662
322
306
307
321
335
351
377
404
413
419
387
349
333
331
335
341
361
372
354
350
348
353
345
367
660
349
343
347
352
368
385
407
435
442
441
403
368
358
361
362
376
391
378
367
369
368
370
271
664
380
354
352
362
371
386
402
427
438
434
401
355
344
333
331
333
337
345
326
315
316
318
312
322
624
309
296
294
300
307
319
339
358
368
358
322
281
264
262
266
261
280
290
279
263
260
263
263
154
659
286
249
248
256
270
283
312
330
343
345
325
282
267
270
272
286
312
316
299
291
300
304
296
365
631
311
300
311
319
338
356
381
401
414
405
371
334
329
331
339
363
375
362
350
353
353
357
246
664
382
353
349
360
374
390
412
441
454
452
423
379
368
368
369
374
384
403
393
376
375
373
374
265
664
437
354
346
355
360
373
392
416
430
434
409
363
338
338
336
338
336
339
356
354
338
334
332
333
243
662
413
314
305
312
322
330
351
371
387
395
380
339
312
308
306
308
310
310
320
341
336
325
328
330
333
226
663
364
316
312
317
327
334
353
377
393
398
378
334
311
304
300
302
306
306
324
328
311
305
308
310
260
534
434
298
286
289
299
309
328
349
368
374
363
323
284
281
280
284
292
315
326
309
300
301
304
309
243
660
318
302
308
319
329
346
369
391
405
401
370
324
316
316
321
330
357
361
339
336
337
341
334
391
659
337
329
332
342
357
367
397
415
427
422
383
343
333
336
338
343
360
376
361
353
350
353
355
256
664
358
338
337
347
355
372
393
418
432
434
399
361
343
341
343
341
346
353
372
365
352
352
352
355
257
663
436
339
333
342
351
361
380
403
422
429
411
367
341
338
338
339
339
341
345
366
363
351
350
350
352
267
661
441
336
328
334
342
352
368
391
409
420
404
362
331
325
322
324
324
324
322
335
349
335
328
328
331
326
278
660
322
308
308
314
322
333
352
376
389
390
359
318
298
296
300
299
301
303
316
322
309
305
310
306
298
322
593
298
280
287
293
299
313
339
356
368
364
331
288
271
270
272
275
283
297
312
298
294
291
296
297
222
658
314
291
294
309
320
340
364
386
403
404
380
338
319
318
326
332
351
373
363
349
352
353
360
257
663
441
354
349
355
363
376
398
421
435
439
417
370
344
344
341
346
362
374
361
348
348
352
349
233
664
388
337
330
338
347
360
382
406
416
422
391
346
324
323
321
320
331
348
340
325
325
327
326
243
659
422
309
301
305
313
324
343
366
383
389
369
328
304
298
300
300
300
308
329
323
311
309
315
312
235
648
404
305
302
311
323
333
351
378
395
406
393
352
330
316
320
324
326
326
342
351
333
334
337
344
338
318
659
336
322
327
333
342
361
379
404
418
418
387
341
319
320
320
326
328
344
357
341
330
328
331
331
266
661
332
315
319
330
341
354
380
399
410
408
381
334
316
316
318
322
328
350
354
334
330
335
334
290
549
526
325
318
323
330
346
360
387
407
415
407
366
334
328
330
336
334
355
362
352
344
345
347
346
287
662
341
328
330
337
349
363
386
409
426
423
392
353
338
339
340
338
346
361
352
337
336
335
331
260
636
415
306
299
300
303
314
337
358
373
380
364
316
285
279
279
285
287
302
313
287
286
283
286
282
273
609
287
267
269
275
291
310
331
359
367
364
337
302
292
296
304
318
351
348
336
334
341
341
311
537
597
344
341
351
362
375
396
423
444
448
438
394
365
357
362
365
381
397
388
371
371
377
380
269
664
455
371
369
377
387
398
417
440
455
454
433
387
366
364
364
367
373
388
377
363
359
362
362
278
662
475
341
336
342
351
360
381
401
419
427
410
366
342
339
342
339
343
351
362
350
340
343
343
341
278
662
338
315
313
324
324
340
359
383
394
391
363
316
293
291
285
286
291
308
309
289
284
283
282
257
438
438
264
260
260
274
286
306
330
348
351
349
310
278
272
269
276
287
311
318
302
300
303
316
310
319
651
315
308
313
323
340
354
382
408
417
415
385
345
330
333
341
358
380
369
356
356
358
359
295
658
536
351
349
357
362
374
396
419
441
443
428
382
354
348
345
347
352
365
367
352
347
346
351
341
377
660
337
327
330
338
345
364
388
409
418
416
380
338
327
324
325
326
327
337
355
340
334
337
337
336
231
663
341
316
312
321
330
341
361
386
397
401
372
330
311
307
308
308
311
312
318
337
333
318
319
319
317
218
662
364
308
304
309
315
328
343
370
384
393
381
336
311
305
308
310
315
319
319
333
351
343
337
339
341
346
257
663
353
338
336
343
355
364
386
413
429
430
410
365
347
341
345
345
350
352
358
377
369
359
356
356
356
275
661
417
334
331
336
344
347
364
390
404
406
398
354
317
309
314
316
318
322
334
351
335
328
327
332
331
262
662
337
320
321
335
344
357
384
404
423
420
398
348
335
332
332
340
349
370
371
350
348
352
354
321
517
625
347
342
343
351
360
379
404
425
436
427
387
351
343
343
348
348
350
363
379
366
359
359
360
360
248
664
384
342
335
347
355
369
388
418
430
434
410
365
343
343
340
345
345
346
351
369
371
357
356
357
359
308
586
556
343
339
344
350
360
376
398
416
427
417
376
337
325
322
321
320
319
317
322
337
323
311
309
307
305
196
662
320
284
280
289
298
309
328
353
369
377
356
315
289
288
290
287
297
300
302
326
331
319
321
320
327
309
426
543
317
306
313
320
333
347
369
394
400
400
359
320
304
301
309
311
311
324
344
330
316
319
320
322
228
661
353
313
311
323
329
342
367
383
399
405
383
347
317
313
326
334
352
375
375
351
352
349
352
305
624
554
344
342
344
355
367
384
408
424
423
409
366
332
323
322
325
340
350
331
314
311
311
308
196
663
348
289
282
287
297
312
336
357
368
371
347
301
276
280
279
285
311
318
302
289
292
295
301
190
663
316
291
294
305
316
336
364
390
405
408
380
340
323
324
326
335
350
374
366
354
359
364
369
295
663
520
371
368
376
390
402
428
453
477
486
472
430
401
399
404
407
408
410
423
435
420
413
414
416
411
360
664
399
384
381
383
390
401
418
438
447
446
414
364
344
335
332
329
327
323
324
344
337
322
318
319
316
228
658
373
298
293
301
306
316
338
358
376
380
370
329
294
287
290
290
292
290
304
319
312
303
307
311
310
212
661
325
297
295
304
312
328
347
374
390
393
370
329
304
302
305
305
311
327
336
322
317
324
326
322
362
612
321
311
315
326
333
346
369
392
404
401
366
328
313
315
314
320
331
338
320
312
313
313
308
353
572
299
290
290
295
307
317
344
361
366
365
320
283
272
269
276
294
312
291
282
285
287
292
200
659
307
282
288
301
315
333
359
387
403
407
376
338
315
315
321
345
355
340
330
329
330
335
226
663
354
325
320
329
341
358
382
404
424
425
397
356
344
344
346
360
372
358
341
342
343
341
243
663
427
324
314
319
330
342
359
384
398
402
386
343
323
317
321
322
330
345
331
320
321
327
330
228
663
368
312
310
314
324
334
355
378
391
392
372
331
303
301
297
298
299
311
317
301
298
298
301
282
389
518
292
278
279
290
298
312
333
360
369
360
331
295
286
283
283
283
292
311
295
292
298
303
304
211
660
326
300
301
309
322
340
361
384
399
404
385
342
321
317
320
326
345
358
349
339
342
352
360
255
663
386
352
349
356
369
387
405
430
442
448
419
376
356
354
356
362
379
388
371
360
363
361
356
358
662
348
339
338
349
356
370
390
409
418
412
374
337
323
318
318
315
321
342
329
313
314
315
315
213
662
351
301
295
298
310
322
340
365
383
386
367
328
299
298
301
302
303
315
331
322
317
324
329
330
255
661
338
319
322
332
343
358
381
403
417
419
394
356
335
336
339
336
339
353
363
350
343
340
337
336
259
661
334
314
313
319
329
340
364
382
394
398
365
323
298
294
298
296
308
325
324
308
302
308
306
234
624
373
292
288
294
302
316
329
356
366
368
356
315
288
275
278
284
303
319
315
295
299
295
300
212
662
368
295
288
298
309
325
341
373
387
392
372
331
304
299
301
308
333
340
324
313
316
319
321
288
662
325
314
315
323
335
351
375
401
412
412
376
338
326
328
329
336
355
367
352
345
345
350
351
298
664
352
341
345
352
365
378
404
431
445
446
413
375
362
359
361
367
367
379
394
378
375
376
376
366
407
662
357
350
352
359
368
381
403
424
435
427
390
349
335
328
328
327
328
336
353
338
328
332
328
331
257
661
324
303
301
305
315
323
344
367
379
377
344
298
278
275
273
277
276
290
304
289
282
280
281
279
245
616
282
259
265
270
288
301
323
340
352
348
318
280
262
263
268
274
303
318
305
295
297
299
307
224
662
318
297
302
312
324
336
364
386
396
400
368
325
306
300
302
315
340
339
319
316
320
320
296
462
584
317
308
315
322
333
351
377
395
404
396
356
320
310
307
308
315
332
341
329
319
322
325
326
245
662
324
304
301
311
319
332
354
376
384
389
355
313
296
293
294
296
305
322
317
305
304
308
308
233
653
402
307
309
310
321
336
351
384
398
407
390
349
323
320
320
326
328
340
359
355
342
347
351
354
265
662
416
346
344
355
364
380
404
431
449
456
440
401
377
374
377
381
384
389
408
414
401
395
398
401
352
632
594
379
376
374
383
393
406
427
445
448
432
390
357
344
345
347
345
361
374
365
346
349
346
348
246
662
383
327
323
327
334
346
363
384
400
401
376
330
306
297
299
300
301
315
332
324
309
307
304
304
196
662
323
281
277
283
287
301
319
340
353
361
338
294
268
265
264
267
268
271
289
295
279
278
284
285
258
438
485
281
279
282
294
311
326
352
379
380
387
359
328
322
319
311
312
313
317
323
310
305
309
311
306
348
622
318
309
311
317
325
343
370
387
400
401
365
323
312
308
314
317
322
342
348
330
327
326
325
290
523
508
322
315
322
329
342
367
388
410
413
412
374
333
322
321
333
335
364
368
349
352
354
356
315
