347
348
346
349
350
355
372
360
359
359
359
355
74
664
417
311
300
299
297
299
303
320
338
362
365
341
333
339
341
342
342
349
353
369
352
355
353
354
279
451
663
302
310
303
305
303
307
316
334
356
374
366
338
336
340
343
345
351
355
372
354
365
362
361
269
522
662
306
314
309
310
309
314
324
343
365
382
373
346
345
347
344
346
350
366
359
364
362
362
356
96
663
384
316
310
308
307
308
318
339
359
379
384
359
349
357
359
360
363
383
377
385
389
389
381
175
664
364
347
336
333
330
330
335
348
365
383
377
351
349
353
350
351
353
365
351
358
357
354
212
610
655
305
300
294
293
288
291
300
318
336
349
337
321
327
330
327
332
349
344
343
343
341
329
92
664
320
299
290
294
292
291
297
306
328
345
353
339
344
348
347
350
360
368
356
361
362
362
77
663
563
320
315
310
311
306
308
317
332
352
363
350
352
363
359
361
363
384
368
377
374
374
269
531
663
320
326
319
318
313
311
316
327
347
360
356
352
365
368
368
370
380
392
374
378
376
376
141
663
623
329
324
319
320
315
317
323
340
362
372
355
350
359
358
357
359
369
375
386
365
369
369
366
80
664
446
322
314
311
309
308
315
332
350
367
372
347
342
346
348
346
350
356
362
365
372
353
362
356
354
157
662
591
315
310
307
305
303
307
320
337
357
368
349
327
328
331
330
331
339
346
356
354
345
349
348
340
73
663
336
308
298
296
296
298
302
317
333
353
360
334
330
332
335
338
339
347
364
359
353
353
357
337
134
663
332
318
314
312
314
309
315
329
347
366
369
351
355
360
360
359
364
372
387
371
377
376
373
214
660
659
324
323
318
318
314
313
323
340
359
374
362
350
360
360
356
361
364
368
386
370
374
371
371
250
595
662
318
319
316
314
314
317
324
341
360
376
364
345
352
353
350
351
355
362
365
379
365
365
362
361
246
570
662
311
313
309
309
308
307
317
333
353
373
362
340
343
345
343
344
349
352
357
369
357
362
359
357
245
538
661
305
307
303
303
299
302
311
326
347
366
359
335
339
339
339
342
348
353
358
372
361
362
358
359
322
270
662
312
318
314
313
313
314
323
341
361
382
381
352
349
354
353
353
356
362
367
372
378
367
370
366
366
270
482
660
322
324
319
318
317
320
332
350
369
391
383
351
346
349
343
344
349
353
358
369
362
361
360
359
347
132
663
324
320
312
310
311
311
320
340
361
384
386
355
341
345
341
340
344
350
356
362
368
350
357
356
354
145
662
495
323
315
311
309
306
313
329
351
373
390
363
333
331
333
331
334
340
343
355
346
345
346
343
319
152
662
306
304
300
297
298
297
306
320
341
364
359
334
328
335
331
331
337
342
356
355
348
349
347
346
51
663
430
309
299
299
300
300
305
320
336
358
369
356
348
357
356
354
356
361
379
372
369
368
367
359
93
663
376
327
320
319
313
312
313
327
342
364
369
355
359
366
364
362
364
368
388
374
375
373
371
351
199
663
339
325
316
313
313
312
317
328
344
365
363
344
350
357
354
353
357
364
367
383
365
369
367
366
219
660
659
316
315
313
310
310
311
321
339
361
376
364
344
351
353
351
351
357
363
368
369
383
359
367
365
362
131
663
583
320
312
313
311
312
315
329
349
370
384
367
345
351
352
352
357
362
367
373
381
383
366
371
369
367
97
663
463
327
320
318
318
319
322
340
359
378
388
366
345
350
348
346
348
353
360
370
369
359
361
361
358
96
662
443
324
315
311
311
310
317
331
350
374
380
359
339
344
345
339
343
349
353
360
368
355
356
356
352
306
288
661
308
316
307
308
308
310
321
342
362
383
376
340
331
333
330
331
335
341
344
355
343
346
345
344
307
221
662
301
304
297
298
299
299
308
330
347
371
368
338
335
337
336
334
339
347
354
365
348
354
352
353
144
663
628
310
304
299
299
299
300
312
329
351
368
359
341
347
349
347
350
358
365
379
363
368
367
367
185
662
659
317
318
315
314
311
314
323
340
363
377
369
353
362
365
362
359
368
374
385
369
375
373
372
158
663
655
316
316
312
308
309
306
319
334
355
371
358
349
356
357
355
357
360
379
372
366
365
366
361
73
664
458
319
308
309
307
305
306
321
338
361
368
354
348
358
360
360
363
379
384
374
379
378
378
145
663
582
347
342
340
338
338
338
349
366
384
397
382
372
380
374
377
374
375
388
370
377
373
367
280
453
660
309
313
304
303
298
297
309
325
341
354
331
303
310
311
309
310
315
328
336
323
327
327
326
63
663
525
287
281
279
281
284
289
304
321
346
362
351
339
344
346
347
349
357
372
358
362
361
361
197
662
660
316
316
314
311
313
312
321
341
363
379
372
353
361
362
359
358
364
385
379
379
378
380
370
164
664
380
338
329
328
326
324
331
346
367
386
384
364
364
369
370
368
372
376
382
394
379
378
375
374
348
248
662
334
332
324
322
320
318
327
343
362
383
378
352
346
350
348
345
347
350
354
359
367
346
353
350
347
255
439
657
302
300
297
293
294
296
309
331
351
371
360
325
317
318
316
317
325
329
337
350
332
336
337
333
233
459
660
290
293
289
288
286
288
299
313
334
358
347
325
327
330
330
331
336
345
366
351
358
354
356
282
386
662
313
318
314
315
311
315
322
338
359
381
381
361
365
364
362
363
365
370
388
376
376
376
374
342
244
663
336
325
320
317
313
311
320
337
357
380
377
353
352
358
357
354
361
365
369
383
363
370
368
366
202
662
659
314
314
314
314
311
314
326
346
364
382
368
346
350
353
351
352
358
364
370
379
362
368
367
367
157
663
624
325
320
317
315
313
318
330
350
370
385
368
344
348
347
346
348
352
356
361
373
359
362
358
356
316
272
662
317
319
313
313
311
312
323
338
359
380
377
344
332
333
332
335
336
337
344
356
340
347
343
342
259
401
658
298
298
293
290
291
294
306
325
344
362
355
327
327
331
326
328
334
341
358
350
352
352
349
342
91
663
342
309
299
299
301
302
306
321
341
363
371
351
350
357
353
353
357
364
378
376
368
371
368
368
89
663
560
327
317
315
314
313
316
333
353
376
387
369
357
361
362
359
362
367
373
388
372
378
375
372
312
389
663
317
320
313
311
311
309
318
337
355
375
369
344
347
351
350
352
355
359
367
378
373
368
365
364
361
96
663
387
325
313
313
312
312
317
335
355
374
383
359
348
351
351
349
352
358
362
367
379
368
367
365
364
347
172
663
327
327
319
316
314
312
320
338
357
376
380
352
339
342
341
338
340
348
354
357
365
349
352
353
350
137
663
525
315
306
303
303
301
306
320
342
364
379
363
340
340
342
339
342
349
356
366
370
357
359
359
361
95
663
519
324
316
311
307
310
311
325
339
362
377
366
353
359
359
355
360
361
367
383
376
375
371
373
364
116
663
361
328
318
319
315
311
318
329
349
373
378
362
357
363
360
360
363
367
375
388
379
373
371
371
365
105
663
380
328
317
318
312
312
315
328
348
372
378
355
346
352
351
348
353
355
363
368
374
360
362
359
357
133
663
577
316
307
306
304
304
308
323
343
365
380
364
341
344
348
346
350
355
362
368
378
363
369
369
368
297
390
662
326
329
326
324
323
322
331
347
364
381
377
348
342
342
339
341
342
348
353
365
347
353
351
346
232
499
653
302
296
291
290
288
293
298
315
332
353
342
317
318
318
315
316
317
319
342
329
327
324
320
277
262
662
272
279
274
274
272
275
281
290
307
323
337
327
330
333
336
337
341
352
372
358
364
368
372
188
663
660
334
337
336
334
332
331
332
345
364
382
381
373
378
378
374
372
380
394
392
376
372
371
372
106
664
575
305
297
295
296
266
246
318
320
325
348
358
343
344
349
354
356
366
386
371
378
377
382
334
304
661
345
350
341
336
326
321
323
331
345
363
365
359
368
377
379
383
382
387
396
383
384
384
381
347
240
661
340
342
333
332
331
331
341
363
386
410
406
367
343
344
344
347
350
358
373
354
362
360
360
222
549
610
322
318
310
305
303
302
311
331
350
375
367
345
339
341
341
339
346
322
357
344
332
338
341
148
641
399
324
319
316
318
324
334
352
373
398
411
389
361
360
362
358
361
363
373
361
368
367
367
272
461
652
332
331
325
323
321
326
340
358
376
393
377
340
332
337
334
337
347
352
341
346
347
345
112
662
476
313
301
298
297
297
301
315
342
371
384
360
340
337
336
336
339
357
353
355
358
357
333
172
663
324
322
313
312
308
307
316
335
361
388
385
355
344
346
345
345
357
365
357
364
365
362
116
663
613
318
312
309
306
307
311
326
349
376
389
365
345
350
349
347
349
367
357
363
363
364
253
558
661
316
318
312
310
307
310
323
344
367
385
370
344
347
347
347
347
364
359
360
362
361
344
167
663
322
318
309
310
307
307
318
336
358
381
376
345
340
343
341
343
351
363
353
360
358
359
143
662
567
322
313
311
312
309
314
332
353
377
387
365
343
344
346
344
348
361
361
358
365
363
364
89
663
394
326
316
314
314
314
321
341
363
385
386
356
342
344
343
343
347
362
353
360
360
359
223
614
653
319
315
311
309
309
317
331
352
375
390
370
344
346
345
345
349
360
365
361
366
366
362
89
663
433
333
321
320
317
317
324
341
362
383
390
361
344
344
343
345
352
363
364
357
362
364
358
90
663
369
327
315
315
314
312
322
338
358
382
384
354
340
340
340
342
345
364
354
362
362
363
263
497
655
328
327
323
323
321
322
337
358
380
397
379
350
350
348
346
344
358
352
351
352
349
336
112
662
312
307
296
290
288
289
299
311
331
349
342
316
316
317
316
320
331
343
329
335
338
338
59
663
473
306
296
295
292
291
295
305
322
346
359
348
348
354
357
356
359
382
377
378
380
377
314
362
663
331
334
329
326
322
320
325
343
365
385
383
370
374
377
375
378
383
397
384
390
389
386
163
663
618
336
328
323
319
318
314
331
350
372
383
361
349
352
353
351
358
360
376
360
365
364
362
138
662
553
327
316
314
313
313
321
337
356
377
391
375
356
358
354
355
357
365
371
387
369
377
373
368
223
628
608
332
325
320
318
317
322
334
355
376
385
363
338
337
338
336
337
342
345
364
347
353
350
350
227
542
655
308
303
297
298
295
299
309
323
347
360
353
331
334
337
336
337
349
354
366
348
353
351
347
63
664
474
314
303
302
299
297
299
312
330
352
363
352
347
354
354
353
356
362
381
365
368
366
363
247
540
661
320
319
314
312
307
304
312
325
347
365
359
349
360
360
359
359
364
374
380
367
372
367
367
81
663
457
329
316
311
309
306
309
316
335
356
364
349
346
355
352
354
357
366
369
383
363
369
367
366
196
661
641
323
320
316
312
313
313
325
343
364
379
368
350
354
354
356
358
364
369
375
383
382
369
369
367
358
126
663
349
324
316
314
313
308
318
333
357
381
384
355
347
348
349
350
355
358
366
376
369
370
369
366
355
138
663
341
328
320
318
316
316
327
346
369
391
390
358
343
348
344
344
346
354
368
365
357
361
359
356
81
663
372
322
312
309
309
308
316
339
363
384
388
356
337
341
341
340
344
352
365
354
365
366
363
213
640
640
324
320
314
311
311
313
329
348
370
384
362
333
336
337
332
334
340
355
343
349
349
345
268
398
661
302
301
295
298
295
296
303
323
344
363
352
330
333
333
331
332
338
358
349
353
352
354
223
613
662
314
316
315
311
307
308
319
335
360
373
366
355
362
361
355
357
367
375
368
373
372
370
129
663
628
328
322
316
316
313
313
323
341
366
376
361
355
364
365
359
364
366
386
371
378
373
372
282
523
662
316
319
311
308
306
306
317
335
356
370
358
336
340
344
342
342
348
355
361
373
356
361
361
358
121
664
575
321
315
312
310
310
316
333
356
378
384
362
344
349
349
349
350
358
363
366
376
361
370
369
368
175
662
591
333
324
324
320
319
327
340
359
380
392
370
345
345
345
342
343
350
355
361
361
350
357
357
354
135
663
517
316
304
299
297
296
296
312
326
349
362
347
329
333
332
333
334
344
356
356
348
350
350
347
58
664
424
313
303
299
300
296
300
308
327
352
364
352
352
356
353
352
356
359
379
365
369
367
364
273
440
661
318
320
315
312
308
307
310
324
346
366
364
351
357
359
356
354
360
381
371
371
369
369
362
108
664
357
324
314
310
308
307
310
324
345
370
372
352
351
354
353
353
359
364
379
364
372
370
369
211
660
633
333
327
322
318
316
318
330
348
369
384
368
347
348
349
349
350
360
362
375
358
366
364
361
227
598
640
325
318
316
314
314
318
334
353
377
394
378
351
347
346
346
350
355
361
367
377
358
365
361
358
257
490
656
319
319
313
313
312
316
330
348
369
389
379
348
342
344
340
341
347
351
365
363
357
359
357
353
78
662
367
322
312
310
308
307
315
331
351
374
381
357
345
345
345
345
350
358
365
376
361
368
367
365
150
663
502
336
327
323
322
322
324
337
355
376
390
367
341
351
346
342
343
349
361
359
360
367
370
371
119
662
372
349
338
333
328
326
337
355
375
396
394
364
347
350
345
346
348
349
366
349
358
354
351
281
331
635
313
309
302
301
297
300
310
329
347
363
355
325
323
325
326
328
334
347
350
339
344
341
341
54
663
413
303
294
293
289
285
290
302
320
344
358
344
343
348
349
347
354
367
367
362
363
362
361
55
663
447
327
318
317
313
313
314
325
345
371
380
367
363
368
366
361
366
383
379
376
377
374
368
107
663
403
330
320
317
316
315
321
342
364
384
387
364
365
371
369
366
371
385
392
380
388
389
388
147
663
570
350
341
335
333
330
331
344
361
379
388
369
357
362
360
357
358
363
367
380
360
366
362
358
247
530
634
321
315
311
310
307
310
323
341
362
378
363
338
336
337
337
337
342
346
359
348
355
352
350
318
219
660
314
314
311
310
311
313
327
348
372
389
384
349
341
342
342
344
348
353
367
362
362
363
361
359
106
661
354
336
327
328
328
331
341
362
384
407
407
369
349
349
345
347
352
357
365
374
363
369
368
372
341
276
660
353
360
356
355
357
362
378
403
424
444
429
384
366
365
360
357
362
363
368
378
362
372
367
369
254
504
564
338
327
323
324
321
327
346
373
398
411
384
336
325
324
318
314
313
312
322
303
305
302
295
233
312
582
265
259
254
257
253
258
274
300
325
344
324
289
290
292
291
293
298
316
314
317
321
323
309
103
663
295
291
284
281
282
283
293
312
330
349
344
320
321
323
323
322
329
350
343
346
346
346
312
202
664
316
311
306
304
303
305
310
327
348
365
364
349
356
361
358
359
367
384
371
375
375
374
224
661
662
323
326
322
321
317
316
325
342
362
377
370
360
371
372
368
371
383
390
378
384
382
381
140
664
653
333
328
326
323
322
322
336
353
375
387
370
370
379
382
383
385
390
409
399
401
399
395
365
257
662
350
347
335
332
330
327
334
348
366
383
374
353
353
359
357
354
357
358
368
356
352
352
352
343
75
662
329
304
292
288
286
282
288
301
322
339
338
317
312
318
316
317
322
343
340
337
339
338
334
38
663
370
304
297
297
295
294
301
317
336
356
361
346
347
350
350
346
350
374
371
368
367
365
349
143
663
343
324
312
313
308
305
311
324
342
364
364
348
355
359
354
355
359
377
370
370
371
369
341
232
663
330
324
317
312
310
308
315
332
349
367
362
343
347
349
350
348
353
371
366
368
364
362
317
302
663
309
308
302
299
296
296
306
323
343
362
350
328
334
337
333
337
348
354
344
353
354
355
82
663
523
317
307
304
303
302
307
325
347
371
377
355
350
357
359
359
365
383
373
384
382
381
193
663
641
347
345
341
338
338
340
353
371
393
402
381
368
371
368
364
363
377
370
371
371
368
342
207
662
315
314
306
304
301
300
308
323
345
362
347
315
316
319
316
317
323
342
333
334
332
332
244
412
660
289
291
281
282
280
283
291
310
332
346
340
324
330
331
330
334
347
368
355
362
362
361
164
662
651
324
319
317
315
313
315
325
345
367
381
368
360
365
364
366
369
375
392
378
386
385
385
182
663
657
336
333
329
324
323
326
336
352
375
386
370
356
362
360
361
362
366
385
373
372
365
363
288
411
662
313
320
313
310
307
307
314
331
351
371
361
343
348
350
350
351
354
358
370
363
359
355
353
326
177
662
293
290
281
280
279
279
288
306
328
352
351
325
325
325
323
324
328
336
339
353
334
341
337
337
202
588
644
293
290
288
288
292
295
309
330
355
374
361
338
338
341
343
348
356
357
364
375
365
365
361
361
313
308
663
316
316
313
309
309
311
320
340
360
382
380
354
347
349
345
349
355
362
363
367
368
377
354
358
354
352
48
664
501
307
297
295
293
293
296
308
327
352
369
355
344
347
350
349
351
359
366
369
382
361
367
365
364
164
662
616
323
316
312
309
308
311
324
345
369
384
367
347
348
348
346
348
354
360
361
366
377
354
361
358
358
128
662
573
320
314
313
311
310
314
330
351
373
387
369
344
343
345
343
350
352
358
361
370
353
360
357
357
211
605
588
322
313
311
310
309
315
333
356
380
398
378
346
342
343
345
350
357
365
374
378
365
373
373
374
142
662
481
345
334
333
332
332
337
356
378
399
407
377
350
348
350
349
352
360
366
373
357
361
361
356
136
663
580
313
304
297
292
289
287
299
314
332
348
331
312
313
310
309
306
310
330
323
319
323
320
289
166
663
293
294
290
289
289
289
302
322
345
370
371
356
356
359
356
355
359
377
371
366
369
371
368
66
663
524
326
318
315
315
314
321
339
362
383
389
363
359
367
363
363
367
372
389
379
382
382
379
299
468
662
326
330
322
321
319
319
331
346
365
380
369
350
357
358
354
356
360
365
375
380
365
366
365
365
101
663
420
323
311
308
303
304
306
323
344
361
367
339
326
332
334
331
333
338
342
353
339
348
345
344
262
412
659
305
304
299
295
294
297
310
325
350
366
355
330
333
336
336
337
345
357
361
349
355
354
351
82
663
512
312
301
299
293
288
286
291
308
329
335
319
314
324
324
322
328
334
356
348
358
362
362
302
349
663
325
328
323
321
319
318
328
343
364
380
375
360
367
368
366
367
373
382
390
377
381
380
377
150
664
629
336
330
326
323
319
322
332
352
374
384
365
357
366
365
362
362
370
379
387
374
378
377
375
110
664
536
335
323
320
317
320
323
336
354
374
380
360
354
359
359
358
359
362
380
368
371
370
369
344
226
662
325
326
318
315
314
314
323
342
359
380
371
349
350
352
348
346
351
356
364
367
354
358
355
352
83
663
395
316
308
302
299
302
306
324
344
363
366
337
321
327
326
324
329
337
349
349
342
345
347
341
56
663
415
307
297
296
295
295
302
314
334
357
360
339
334
338
338
337
344
349
367
358
359
357
359
329
195
663
325
320
311
310
308
307
313
328
349
371
370
350
354
356
353
355
357
366
380
366
374
371
368
187
663
652
325
320
314
317
315
317
329
350
371
384
363
349
355
356
354
356
359
366
378
371
372
368
367
349
202
663
334
328
319
317
315
317
328
349
368
386
379
353
351
351
348
349
351
359
376
366
371
368
368
328
290
662
326
326
320
318
316
319
330
349
371
387
373
343
341
341
336
332
336
346
344
339
341
337
338
56
663
396
296
283
278
277
274
277
289
314
334
339
317
314
321
324
319
326
343
343
338
338
340
339
36
663
408
301
287
286
283
278
281
297
313
338
342
326
328
333
333
334
334
354
346
348
349
347
283
364
664
307
310
304
305
305
305
315
333
355
375
374
365
375
379
375
381
395
404
396
399
401
400
141
664
644
349
344
338
338
332
331
343
360
382
385
371
372
381
380
376
375
396
388
388
384
380
365
186
663
357
331
321
314
311
308
312
328
346
363
355
333
340
344
339
340
341
359
349
351
351
351
299
336
662
297
302
292
290
287
289
298
315
337
352
340
319
326
326
322
321
324
340
333
337
335
334
293
273
662
286
287
271
259
256
258
266
282
306
321
308
284
287
290
292
296
302
320
310
315
315
314
314
121
662
306
310
305
304
308
310
322
344
368
387
382
355
355
364
359
359
361
383
379
378
382
382
382
108
664
429
350
338
334
332
327
332
350
368
385
383
355
351
354
351
349
354
368
365
363
364
364
355
94
663
362
321
314
313
316
311
320
335
354
373
376
361
362
362
357
354
361
374
361
363
359
356
248
525
662
291
285
272
268
262
257
261
274
291
306
304
301
310
318
314
321
345
343
335
336
337
336
78
664
374
302
294
292
291
289
292
304
320
338
340
335
340
345
343
346
350
369
357
358
355
356
166
663
656
302
298
288
288
282
271
267
270
281
297
302
301
314
322
325
336
369
358
355
361
362
293
540
663
317
324
320
326
327
323
331
346
365
380
379
373
380
381
382
384
405
398
390
388
390
376
261
664
377
344
336
333
330
332
335
346
362
373
374
366
368
369
370
368
367
389
371
363
360
354
290
458
663
299
301
294
291
290
288
297
310
333
348
344
336
337
339
337
339
345
362
356
343
343
339
323
180
662
297
291
279
278
274
273
276
285
300
320
323
311
311
314
313
313
316
321
341
321
322
321
322
143
662
513
288
276
271
272
271
271
284
302
327
348
339
327
332
334
330
333
339
355
345
346
341
337
287
281
662
287
284
275
270
257
254
261
277
303
322
320
306
314
319
324
329
338
359
357
356
356
364
348
172
664
352
331
322
320
321
321
332
351
376
399
394
370
370
375
372
373
375
393
380
379
379
376
179
663
653
322
314
311
308
309
308
323
343
366
372
354
341
346
345
340
338
356
348
345
340
328
245
352
662
268
275
269
272
274
275
288
304
329
348
341
321
333
340
331
331
352
351
355
358
359
308
347
663
328
329
320
319
317
317
326
346
369
386
375
356
366
361
360
361
371
360
358
355
348
103
664
591
299
292
286
289
291
299
318
342
365
374
352
357
365
368
362
380
375
381
381
384
317
451
662
339
341
332
330
327
330
341
361
381
393
373
362
370
370
365
377
378
373
379
376
369
97
663
381
315
303
301
296
298
307
327
352
371
362
338
346
349
344
341
356
353
352
353
350
321
207
663
314
308
298
296
292
289
295
312
328
343
336
326
338
340
339
340
348
368
354
362
359
360
65
664
561
323
315
314
310
308
311
324
341
363
368
355
360
369
366
369
370
387
372
376
373
372
99
663
596
328
317
314
312
306
308
324
343
370
374
357
362
367
366
364
367
388
386
384
383
385
341
332
663
340
336
327
323
320
321
333
350
370
385
372
354
359
359
357
358
363
379
373
371
369
366
309
364
662
322
324
317
314
311
313
325
341
365
378
363
339
340
341
338
338
346
352
360
343
350
344
342
83
662
379
304
290
283
279
274
277
292
309
329
333
303
290
291
290
293
299
305
311
322
307
313
311
309
68
661
370
278
267
267
262
265
273
292
313
335
343
312
291
296
298
303
310
319
328
343
338
340
342
341
272
348
660
312
311
302
300
296
294
300
319
342
363
354
333
333
340
341
347
354
364
382
374
375
374
377
291
450
662
339
343
337
335
334
334
343
361
387
410
403
384
386
387
385
388
396
400
416
400
406
403
403
219
662
659
356
354
349
344
341
342
351
371
393
407
388
372
376
371
369
372
378
381
393
376
382
379
377
194
661
613
333
325
320
317
314
316
329
349
369
380
358
338
340
337
332
325
325
333
345
333
340
339
341
129
662
475
316
307
306
304
303
308
322
341
363
372
345
328
327
323
321
323
327
339
334
335
337
335
308
188
660
302
303
299
294
297
297
305
326
345
366
349
317
311
308
300
293
294
301
293
294
290
286
236
212
612
252
244
240
237
236
239
250
268
295
312
295
267
268
272
271
276
285
301
296
303
306
308
108
661
514
285
271
266
265
266
273
286
309
337
351
341
340
348
352
351
359
381
378
380
383
381
309
419
663
338
335
321
317
308
306
311
326
352
370
363
350
355
356
354
359
380
381
384
388
389
371
187
663
366
351
342
340
339
337
347
364
389
412
408
395
404
407
405
410
422
430
421
428
429
426
151
664
530
384
372
365
361
356
359
374
390
405
400
373
371
369
363
357
357
369
366
358
355
353
334
151
662
310
308
292
290
286
283
288
302
318
333
323
297
302
305
302
306
313
335
328
328
333
330
216
529
659
297
301
293
294
294
296
308
324
349
369
360
352
354
356
356
362
381
378
371
374
372
354
157
664
361
327
320
318
314
312
316
330
351
376
371
356
361
360
353
355
361
372
355
359
354
353
51
664
421
312
299
298
295
293
292
306
324
349
355
339
345
350
347
346
350
371
359
359
357
357
253
516
662
307
306
302
298
295
291
295
311
334
348
339
334
341
342
340
342
348
370
354
359
359
358
124
664
611
316
310
307
307
306
306
320
340
367
375
361
359
364
366
365
367
372
393
372
374
371
368
162
663
643
323
318
315
313
309
310
319
338
362
376
362
354
359
358
357
361
368
384
365
370
371
370
104
663
555
330
322
317
317
312
313
325
345
370
379
363
362
364
361
362
364
369
385
380
371
371
368
337
256
663
325
324
315
316
313
311
317
333
354
378
376
358
359
358
356
358
361
370
380
384
368
368
366
354
144
663
343
325
316
314
314
312
316
329
351
376
379
358
355
354
350
352
358
360
365
373
384
360
363
360
357
82
664
380
322
311
309
309
307
309
323
345
370
380
360
353
349
348
350
352
356
364
378
356
360
359
357
114
664
549
321
307
304
304
305
305
316
339
363
375
355
341
341
342
345
349
355
364
359
351
352
348
340
70
662
336
311
305
306
302
298
305
314
333
358
364
347
342
341
343
340
345
354
364
351
355
354
351
60
664
438
311
300
297
295
291
293
304
323
348
354
332
325
326
320
313
315
330
328
320
322
320
313
32
663
316
277
265
263
261
260
265
281
300
323
319
297
304
308
305
305
307
331
323
324
321
326
288
236
662
289
289
280
278
276
277
292
308
330
344
332
316
330
335
332
331
334
355
348
349
350
353
283
397
663
310
315
311
313
309
315
326
340
365
376
372
368
377
381
380
382
397
398
390
394
395
392
101
663
608
348
344
344
345
344
349
361
376
392
394
382
390
394
393
391
393
414
399
399
397
395
252
663
663
337
341
334
332
329
327
327
343
360
371
355
354
360
357
353
352
353
370
351
354
353
348
125
664
638
296
288
283
278
275
276
286
299
321
327
314
314
322
322
321
323
329
350
338
339
337
336
212
636
661
290
289
285
290
284
289
298
314
335
348
338
329
340
344
344
346
360
368
360
363
362
360
66
664
528
315
308
306
304
301
306
318
338
360
363
350
356
361
359
355
358
381
375
371
371
373
341
233
663
329
319
306
304
300
296
300
315
334
351
346
339
347
345
342
343
346
351
371
351
353
349
347
199
596
632
315
310
306
303
301
299
307
319
339
362
348
342
353
351
350
352
358
367
380
364
367
364
362
185
661
626
328
320
314
312
310
311
322
340
363
374
359
353
356
359
358
362
370
377
385
371
373
371
371
96
663
561
334
321
320
318
313
315
324
340
361
372
359
357
362
360
359
361
367
387
376
373
371
371
322
275
664
329
327
320
321
317
314
320
331
355
377
372
356
363
367
369
368
369
376
394
383
380
380
373
361
118
663
382
326
314
310
310
308
315
329
350
368
360
339
341
347
346
344
346
351
356
363
366
353
354
352
351
59
663
447
306
296
294
290
290
297
314
336
358
357
331
326
332
331
330
334
340
348
355
362
347
355
354
355
98
664
567
318
309
308
308
306
312
328
351
375
379
351
335
339
335
331
332
336
343
345
351
333
337
332
328
110
662
483
274
255
251
248
246
249
264
284
304
312
283
267
276
273
274
278
289
298
313
302
314
312
314
207
465
624
288
282
280
279
279
284
298
320
347
360
339
322
328
329
329
332
338
349
358
341
344
344
342
122
663
596
308
302
303
303
301
306
321
342
365
375
363
353
357
356
350
351
358
380
368
373
371
373
237
654
662
330
336
331
334
332
332
338
354
374
392
387
380
390
387
382
385
390
410
394
398
398
396
249
662
663
343
346
339
336
331
329
336
351
373
387
373
366
376
373
368
369
377
391
373
379
377
376
202
662
661
325
324
316
315
313
315
326
345
368
376
359
353
361
361
357
357
359
375
358
365
364
361
287
419
660
319
320
312
310
309
308
318
334
353
363
344
324
334
328
324
322
330
336
348
331
341
340
336
167
656
554
304
293
291
289
288
294
310
329
350
361
336
324
329
327
329
330
338
357
348
350
349
348
320
179
663
318
311
303
301
299
300
310
327
350
370
366
349
358
357
355
354
359
376
369
365
364
363
360
46
664
424
314
300
296
293
285
287
300
319
338
336
319
320
319
308
306
308
325
326
318
323
322
322
49
663
520
292
279
275
274
274
276
286
307
333
340
322
324
333
333
334
340
347
370
358
365
366
367
318
338
663
329
328
322
321
319
320
331
353
375
395
381
362
370
373
368
373
375
380
397
381
387
384
381
281
530
662
329
330
326
328
324
325
336
356
378
393
374
358
360
358
354
353
356
361
375
363
368
367
363
294
392
661
316
313
304
299
297
294
304
316
336
349
329
303
304
302
295
294
298
305
307
317
299
304
299
296
123
625
506
262
250
247
245
248
250
262
287
312
329
314
302
308
309
312
315
328
340
350
340
344
347
349
160
662
644
321
314
314
315
314
316
325
338
364
375
370
368
376
376
373
374
380
399
391
392
393
395
377
153
663
409
355
344
344
336
329
328
338
357
379
382
371
382
385
382
381
386
393
408
394
399
397
395
275
592
663
346
348
343
339
334
330
337
353
373
390
381
373
384
383
380
379
385
391
402
385
391
386
384
258
586
661
330
327
319
314
310
307
318
336
356
366
344
327
334
331
326
320
324
327
332
315
314
311
307
155
573
587
261
246
239
235
232
231
238
255
274
282
260
245
251
250
248
251
256
275
276
274
277
277
274
18
662
372
254
245
251
252
253
260
280
308
332
346
324
323
335
335
336
340
348
367
359
366
371
371
269
526
662
339
340
335
338
333
337
345
360
383
395
385
377
386
384
382
380
383
396
384
388
393
394
279
543
663
350
352
346
340
336
336
340
357
378
393
383
379
388
387
381
382
391
396
387
394
392
390
180
663
660
341
340
333
328
323
321
332
344
364
368
360
357
363
366
362
366
380
377
367
375
375
372
83
663
468
339
327
319
317
314
317
323
340
372
361
358
364
365
369
367
370
376
375
374
374
368
358
96
664
370
314
302
301
302
303
313
329
353
369
364
339
349
351
345
342
336
352
340
341
334
330
282
271
662
275
276
269
264
251
252
265
285
310
322
306
290
299
300
298
300
307
321
310
316
316
316
123
662
580
280
272
271
270
273
277
294
316
340
346
327
324
334
336
333
336
358
351
358
360
360
342
191
663
337
323
317
316
318
318
330
349
373
392
384
367
377
378
374
373
377
393
378
386
384
389
258
617
661
341
343
339
338
336
340
352
372
395
408
392
382
392
396
394
398
416
410
414
414
413
396
227
663
388
369
360
355
353
350
360
376
393
410
392
367
372
370
361
355
365
360
357
355
353
348
59
662
361
306
290
284
278
276
279
291
309
326
319
297
301
302
299
302
309
325
312
323
322
325
150
655
613
291
284
282
279
278
279
291
308
331
347
335
336
345
346
344
349
369
367
363
364
362
356
61
664
378
322
312
310
303
301
305
316
336
360
360
349
357
358
356
351
356
378
368
369
370
369
348
189
663
342
329
319
317
313
311
317
334
354
372
369
349
351
346
339
344
355
366
381
368
379
379
378
181
662
631
342
338
337
336
335
336
350
367
385
395
372
368
372
370
367
374
380
387
393
374
377
370
364
129
663
472
319
305
297
292
286
288
298
317
331
330
298
286
291
289
286
287
294
309
301
307
308
305
285
111
661
276
274
262
261
257
257
266
280
297
316
308
290
295
298
297
295
306
323
325
325
327
332
326
31
663
371
310
303
304
304
304
310
324
346
372
378
362
367
372
369
371
377
399
395
394
394
393
386
143
664
399
346
334
332
328
324
330
345
366
384
373
349
357
365
363
367
372
393
385
392
393
393
329
408
663
348
347
337
336
336
329
340
359
377
388
371
359
366
366
361
365
371
389
372
378
376
373
208
662
653
322
314
306
302
297
302
317
335
358
362
338
329
336
335
329
330
346
338
338
338
335
310
201
662
298
294
286
280
281
280
289
303
327
338
324
306
313
314
310
308
327
324
324
327
328
317
68
663
308
289
277
278
277
276
285
297
323
340
340
328
338
344
341
344
364
364
362
366
365
363
74
664
420
322
309
307
311
310
317
335
354
375
374
361
370
373
369
365
380
380
377
380
378
373
106
663
440
349
339
336
333
332
338
352
376
392
384
373
384
389
385
385
388
407
395
399
398
395
276
624
662
343
344
336
336
331
334
343
358
379
385
365
359
369
370
365
364
366
383
372
373
369
369
233
649
661
319
317
312
313
313
315
328
347
366
376
351
340
350
349
347
347
353
367
353
357
350
347
191
660
650
297
287
281
276
275
275
285
301
321
323
292
285
290
286
283
282
283
290
289
283
284
279
280
0
664
333
237
224
224
219
222
228
245
259
284
287
277
285
293
294
297
303
313
335
331
334
330
331
235
483
662
293
295
295
297
299
304
311
333
362
378
368
356
368
369
364
362
369
392
390
390
393
398
375
250
663
401
358
350
351
348
345
350
361
379
394
393
376
384
388
384
374
380
391
382
378
377
372
347
87
664
332
295
280
274
263
262
254
262
271
286
289
289
302
314
308
308
303
319
323
314
310
308
304
77
664
307
267
265
265
262
272
272
286
306
315
318
324
318
322
326
333
340
371
359
363
365
368
237
663
661
321
329
321
328
335
340
352
368
390
404
395
389
397
403
404
412
421
434
419
420
424
419
176
664
660
367
364
359
360
355
354
360
383
405
407
389
389
395
394
391
392
395
412
399
403
401
401
246
661
660
361
360
352
348
345
345
356
372
393
400
381
372
380
378
374
370
373
387
381
381
377
375
344
224
662
328
328
317
314
311
308
317
334
352
364
345
318
321
319
313
308
310
324
318
315
313
310
275
161
662
269
266
256
257
256
258
267
291
315
335
323
299
299
296
295
298
313
322
311
313
313
311
55
664
506
280
270
271
273
274
279
296
319
344
351
325
324
329
326
323
325
341
345
342
350
350
349
60
664
457
314
305
301
303
305
314
334
354
377
371
355
358
365
364
362
369
375
392
388
388
384
389
374
200
663
404
349
344
342
347
348
357
379
401
417
405
385
389
393
389
389
394
398
413
403
406
404
402
373
267
663
386
342
332
327
326
328
337
355
376
392
375
350
353
355
354
355
358
357
380
369
369
371
365
175
663
639
316
309
296
304
299
302
322
339
369
373
333
321
325
325
319
316
307
349
336
319
321
315
308
99
662
285
269
270
271
273
284
294
316
340
361
348
319
316
321
316
320
322
328
344
325
332
334
332
207
636
642
288
280
276
276
277
284
303
327
348
361
335
313
314
314
315
320
324
341
340
346
349
348
339
145
663
325
317
314
315
314
323
339
358
384
403
392
362
360
360
359
356
359
377
372
370
376
373
371
93
664
419
343
330
330
329
329
337
351
373
393
388
362
360
358
352
351
357
376
363
369
365
362
246
516
661
307
300
290
283
277
272
276
297
318
333
314
304
305
302
297
296
313
314
311
298
306
286
84
663
273
268
260
253
257
256
272
287
315
335
328
306
313
316
315
320
341
334
342
341
348
326
196
663
322
322
314
313
311
320
329
359
379
401
384
367
370
374
372
373
390
383
392
396
398
185
663
651
355
352
350
349
342
350
365
386
409
398
366
368
373
376
366
384
381
389
388
390
290
567
661
341
348
335
329
328
331
340
361
385
395
363
353
353
350
350
356
365
370
374
373
222
658
644
337
325
318
322
311
316
332
352
377
385
355
339
336
321
326
331
335
338
331
323
28
663
345
282
266
260
254
251
249
263
282
305
301
288
294
297
294
306
307
312
317
322
259
362
661
292
294
288
288
285
285
292
311
337
353
342
344
348
350
349
360
358
370
371
372
110
663
562
337
324
319
318
312
316
328
349
373
368
352
356
359
352
349
361
358
366
363
365
212
661
660
327
323
317
315
313
317
330
349
378
385
366
369
379
380
381
382
396
401
410
413
416
321
577
663
375
380
373
368
366
369
380
401
422
429
405
390
392
389
384
383
393
391
395
394
391
270
620
660
347
344
342
337
338
342
359
381
404
409
379
367
369
365
361
360
379
371
375
375
374
235
638
658
329
326
319
316
315
322
341
360
385
391
363
352
356
353
353
360
370
360
368
368
363
107
663
366
335
324
322
317
315
327
348
372
389
373
347
348
348
345
346
363
357
363
360
362
112
663
529
321
313
310
307
305
313
332
352
373
364
335
333
333
328
326
334
337
330
335
333
299
237
661
280
278
268
267
261
261
272
293
311
321
296
277
278
277
274
273
291
287
286
287
284
132
566
526
256
244
237
237
232
235
248
267
291
301
282
283
286
287
291
302
324
315
326
327
329
24
664
399
310
303
305
306
305
309
326
349
376
381
369
374
378
378
381
402
399
403
401
402
236
662
662
359
359
354
352
347
348
359
383
411
421
407
407
411
406
407
415
431
418
425
425
423
141
664
529
384
373
369
366
362
366
381
402
419
409
391
397
396
393
393
403
408
401
409
407
394
201
663
376
361
351
344
341
334
343
360
378
389
371
349
354
353
349
348
361
365
355
359
361
339
143
662
320
315
302
294
291
289
294
309
331
350
337
327
331
329
329
335
358
352
348
347
346
248
529
661
303
307
305
308
308
306
317
335
350
363
352
351
354
356
357
367
374
358
366
366
360
124
664
397
325
316
314
312
310
314
329
347
361
361
353
355
355
351
351
375
367
361
360
359
255
622
661
317
318
317
314
314
315
322
338
360
372
364
357
362
362
360
361
383
377
374
376
372
256
632
661
326
323
316
316
312
308
317
332
354
368
360
361
369
369
364
366
372
391
378
377
373
371
215
661
620
338
326
322
319
312
310
315
330
353
366
358
361
366
364
363
365
368
369
384
368
370
365
364
186
661
583
331
321
316
313
306
306
317
335
359
370
355
350
352
351
348
351
359
363
370
381
376
364
363
360
297
384
662
314
317
315
315
313
314
324
342
364
378
366
344
346
349
344
345
350
358
359
363
368
372
355
358
357
337
183
662
322
316
308
309
307
307
318
338
362
386
376
342
339
341
337
338
344
349
356
366
364
358
359
357
353
97
663
365
321
311
313
310
311
321
342
368
389
379
343
339
343
339
338
345
350
357
370
361
365
363
362
285
446
662
321
323
320
320
319
320
338
361
384
400
376
350
353
351
348
349
357
360
365
377
363
369
368
364
247
565
658
322
319
316
315
312
313
328
347
370
378
351
325
325
321
314
314
316
318
319
327
312
312
306
301
169
514
536
254
241
236
231
226
229
241
262
284
292
264
239
241
241
236
238
245
252
256
270
260
268
270
269
176
416
560
259
257
258
262
264
273
291
319
347
365
341
319
324
328
326
332
342
351
360
375
372
376
379
379
346
293
663
350
354
351
351
350
353
369
390
416
438
418
385
386
387
384
385
389
390
398
409
397
400
397
398
344
371
662
357
362
359
357
357
358
373
396
418
435
410
376
377
378
378
374
379
383
397
390
385
387
380
377
95
664
424
344
333
332
331
327
331
346
366
385
384
363
364
367
363
364
366
376
393
383
378
378
376
341
201
664
344
332
323
321
319
316
318
334
360
383
383
372
379
379
374
370
373
378
385
372
371
371
364
95
664
480
305
274
269
263
266
267
270
286
311
319
311
315
321
324
316
316
308
300
319
279
319
337
121
595
357
308
299
301
298
308
313
330
356
379
385
362
360
364
367
367
369
382
379
372
370
365
355
70
662
334
307
283
277
271
277
279
293
272
322
317
307
285
274
271
272
287
300
293
309
312
320
105
660
349
293
280
272
269
267
279
303
328
349
343
313
311
322
323
326
337
346
349
360
363
369
119
662
415
357
349
349
354
359
370
396
423
446
438
398
387
391
393
395
410
410
410
412
413
401
172
663
397
374
364
361
358
357
371
391
419
437
411
375
366
366
360
359
374
366
369
370
368
327
269
662
319
318
313
309
306
306
316
337
362
377
354
329
324
322
316
318
338
335
345
347
347
234
531
656
315
314
310
312
315
318
336
362
387
401
374
361
364
359
355
364
367
362
370
371
373
104
663
462
342
334
333
331
329
333
346
366
383
381
358
358
361
359
357
373
369
377
380
379
299
466
660
344
344
340
337
336
338
355
377
401
407
378
367
371
368
366
378
381
381
385
386
384
134
663
382
358
349
346
344
344
356
377
400
418
399
370
370
367
358
359
374
370
373
372
374
345
261
661
332
336
329
328
326
328
341
361
386
397
372
349
350
348
345
347
359
363
358
363
358
355
104
661
345
325
319
319
318
319
330
351
373
393
377
345
343
344
341
343
347
364
357
363
366
364
258
532
635
335
330
327
326
325
330
350
369
392
394
361
338
336
330
325
327
331
338
325
328
323
318
44
662
322
268
250
246
241
234
243
258
281
298
284
250
249
251
245
252
255
275
264
272
273
273
141
507
639
243
236
230
230
231
236
247
267
295
309
299
301
311
313
313
326
350
349
355
358
361
274
483
664
332
336
332
337
339
342
347
361
382
398
396
398
406
410
406
406
435
428
414
418
419
360
454
664
415
368
360
360
354
348
353
360
373
385
384
385
398
401
398
402
418
413
404
403
400
384
207
664
460
345
331
329
325
317
320
328
340
349
341
331
344
352
362
371
378
408
389
390
386
382
182
664
662
308
306
298
298
291
286
295
305
320
327
319
333
338
342
349
349
349
376
339
330
291
340
54
663
437
306
304
315
311
305
301
303
315
340
354
341
350
364
353
351
357
354
354
345
323
318
307
278
77
555
241
196
213
222
225
252
240
249
280
297
286
263
259
256
256
277
261
275
280
281
271
283
275
248
142
507
263
258
284
287
272
270
309
329
396
428
410
369
360
364
363
360
398
361
361
381
380
380
307
423
539
366
363
361
358
374
383
405
432
459
462
432
409
417
413
415
416
425
419
424
425
429
384
369
662
398
401
396
396
390
389
403
425
448
449
410
378
378
378
375
378
391
380
382
379
377
274
454
661
329
328
320
315
311
310
324
342
368
379
357
346
346
345
341
345
356
354
358
359
361
213
602
658
328
325
323
322
321
321
334
357
384
396
372
367
369
364
361
367
378
371
379
380
378
143
663
625
342
334
328
326
323
323
337
358
384
385
365
367
370
366
362
368
381
373
379
378
376
150
663
639
338
333
326
324
320
325
341
362
385
386
363
362
367
365
361
362
381
371
377
375
374
262
562
661
325
326
318
315
312
312
323
340
362
366
341
332
337
332
323
319
335
328
326
323
317
303
75
662
268
258
244
237
235
232
237
254
274
288
274
254
259
260
254
256
259
280
271
281
283
286
136
591
522
274
268
268
270
274
280
299
322
347
353
333
333
343
344
345
356
369
388
379
391
395
398
235
662
655
362
360
361
361
364
373
390
412
436
445
423
415
423
418
414
416
418
433
421
425
423
420
328
518
662
369
372
366
367
363
366
380
399
420
423
395
380
383
379
374
376
383
392
392
380
385
381
378
118
662
418
339
328
326
322
318
324
340
363
381
374
344
343
347
343
340
345
350
362
353
359
360
358
296
369
659
329
331
329
329
329
331
339
358
376
384
356
336
340
337
336
334
341
357
363
356
362
366
365
125
662
370
356
350
351
353
357
374
402
431
452
435
404
403
402
390
384
384
393
392
390
391
388
384
144
660
388
343
338
332
329
329
336
355
380
393
382
346
338
338
333
335
334
348
343
339
339
334
309
164
615
315
308
302
300
293
298
308
333
358
374
352
328
325
327
325
325
333
343
337
343
346
346
138
661
435
332
322
323
316
317
331
350
377
405
399
367
354
350
348
344
347
362
352
359
361
361
232
587
520
335
327
325
322
321
327
346
372
400
400
373
359
362
362
359
359
372
365
371
369
367
256
550
527
340
331
325
322
318
324
338
361
389
389
361
346
348
342
339
339
353
342
348
345
339
212
552
457
306
297
290
287
286
292
303
320
341
341
314
304
304
302
300
308
315
304
308
303
302
93
661
371
274
269
265
264
268
269
281
290
309
317
305
298
297
291
284
299
299
292
295
297
295
136
663
295
291
290
294
299
303
310
330
352
371
375
373
383
388
383
386
403
394
385
383
381
358
311
664
366
335
330
329
323
327
336
349
364
381
368
361
371
372
366
364
382
373
374
372
375
310
525
664
326
327
320
316
317
315
326
342
363
375
365
362
372
374
371
371
390
381
378
374
374
315
481
663
328
323
317
317
317
317
326
340
360
372
359
356
362
360
359
359
378
369
366
364
358
325
360
664
323
310
302
304
300
301
308
330
352
365
351
340
349
347
347
346
366
363
366
365
366
284
551
663
322
322
315
316
312
313
326
344
363
371
355
349
355
352
354
357
373
357
364
364
360
141
664
655
314
310
310
311
308
314
330
349
370
373
359
360
363
362
360
373
376
371
373
372
369
103
664
436
326
316
313
307
310
312
328
348
365
355
338
340
338
331
328
348
339
334
333
329
214
573
662
275
273
267
264
261
261
275
295
317
326
312
311
321
319
320
327
345
334
341
339
338
62
663
518
302
293
291
292
290
296
315
337
364
361
347
355
357
358
361
367
378
382
378
382
382
378
114
664
429
345
335
334
333
335
345
366
391
414
407
388
391
391
389
392
398
405
416
410
407
406
404
378
255
662
361
358
351
348
342
343
351
371
391
405
386
361
363
361
357
358
361
368
377
366
365
360
355
304
303
656
311
309
299
295
291
290
301
320
341
349
323
293
292
287
286
289
293
299
306
293
299
295
292
66
662
388
262
247
247
247
245
256
274
300
329
332
310
307
313
316
321
329
338
358
347
355
357
357
189
661
632
326
321
321
319
320
328
346
368
395
401
380
378
384
383
381
385
391
410
401
405
404
404
320
492
663
359
364
356
354
348
351
364
381
404
411
387
374
379
377
371
369
375
385
382
378
378
374
372
119
663
356
331
321
318
314
314
321
339
360
377
361
337
339
340
338
340
345
351
365
353
361
361
359
260
491
621
329
324
321
321
320
323
340
361
381
386
361
346
350
347
343
347
354
360
370
355
360
358
355
151
661
449
322
310
308
304
304
311
329
353
372
370
336
327
328
329
328
331
338
349
344
347
348
348
280
366
641
315
315
308
310
307
313
329
352
374
382
355
336
341
344
341
346
354
367
357
368
363
364
169
662
636
318
314
307
304
301
310
315
330
358
365
354
355
365
357
358
358
385
376
376
373
375
321
345
664
350
332
319
327
321
321
320
327
344
357
359
348
352
356
342
354
370
366
358
362
361
355
130
664
459
321
312
313
308
311
316
329
344
361
364
362
369
372
371
373
380
389
372
375
372
368
63
664
619
308
302
297
296
294
299
311
330
346
344
334
337
343
344
340
339
360
340
341
337
334
99
664
661
262
264
259
257
257
259
272
293
311
312
298
301
304
305
307
310
336
325
328
328
327
209
652
663
269
273
271
269
272
275
290
314
338
348
328
324
333
335
337
341
353
367
356
361
361
362
54
664
581
315
308
307
307
309
316
337
360
384
376
351
358
364
361
364
366
390
384
385
385
383
333
415
664
354
329
322
320
321
321
336
357
382
393
370
358
367
368
364
364
385
382
377
380
380
369
170
664
424
322
311
309
311
310
324
348
372
387
368
349
354
357
351
353
367
367
365
370
367
364
92
664
476
312
300
298
297
298
310
330
353
368
356
338
343
349
343
345
366
363
359
361
362
355
132
664
395
311
303
306
303
305
316
335
352
364
349
335
344
345
342
340
361
349
352
354
350
249
606
663
283
286
279
276
271
273
288
309
332
336
315
311
323
318
317
319
341
326
337
335
336
99
664
656
283
278
276
278
276
281
301
322
345
344
324
330
335
332
335
343
360
346
353
354
351
51
664
576
298
286
282
281
277
283
305
323
345
332
312
321
322
318
316
329
334
324
329
329
327
25
663
419
283
271
270
270
271
281
301
325
342
335
319
332
341
339
343
349
360
369
360
365
368
364
101
664
430
320
311
311
314
319
331
348
371
392
381
364
373
378
375
377
383
393
402
405
397
400
397
392
111
664
493
344
331
326
323
320
323
337
354
369
358
333
335
336
328
323
325
326
326
329
318
321
317
314
78
663
496
269
255
254
251
251
254
271
295
319
325
309
311
319
319
322
330
340
349
366
352
361
362
365
151
663
645
328
326
323
327
328
335
355
379
404
409
390
392
396
396
398
399
408
412
431
409
413
408
403
208
663
660
351
351
348
344
342
345
357
379
399
403
381
378
382
379
376
379
385
389
406
384
389
384
382
121
664
536
348
331
328
324
318
321
330
348
369
367
350
354
352
352
350
354
355
372
351
360
352
353
138
662
614
314
305
300
299
296
294
304
316
338
354
345
351
358
358
358
364
371
387
369
376
373
371
74
664
529
330
321
318
317
315
314
325
346
370
369
359
369
373
371
366
369
390
382
384
381
380
308
465
664
327
329
324
321
318
316
327
346
370
383
371
367
378
376
371
372
376
393
376
384
381
378
197
662
643
331
322
318
315
312
314
329
348
368
367
344
345
351
348
344
345
350
366
357
360
358
357
311
314
662
309
313
304
302
299
301
314
336
356
365
342
321
328
325
318
315
316
327
321
314
314
308
301
32
662
284
254
239
231
224
220
225
243
260
275
262
238
241
245
240
240
245
253
265
250
259
259
262
15
662
365
236
227
226
232
234
239
258
280
307
314
304
315
329
324
326
334
359
359
360
363
366
358
141
663
373
333
327
326
327
322
330
349
375
392
386
384
395
399
396
397
399
421
415
418
413
412
387
271
663
393
370
360
360
355
352
359
372
396
409
400
393
405
403
400
399
401
400
415
399
403
395
388
223
661
648
353
345
337
336
334
329
338
356
378
387
375
382
392
390
388
387
394
401
418
400
399
399
399
382
207
662
366
360
351
348
343
341
346
361
381
399
385
372
379
377
368
371
371
375
386
380
368
367
362
358
87
662
343
309
297
290
284
280
286
306
328
346
338
313
319
320
313
311
311
317
318
332
317
317
315
309
126
645
433
291
283
280
275
279
278
292
307
337
346
334
338
349
349
349
359
366
384
386
374
371
378
377
124
663
420
353
345
347
344
343
343
356
373
397
396
382
389
389
383
385
386
390
410
398
405
401
401
269
643
662
338
336
331
322
317
314
318
332
351
360
350
351
360
357
350
349
351
368
363
360
362
362
354
93
664
356
318
306
302
297
293
301
315
335
355
347
335
344
348
344
342
346
358
361
355
361
360
357
96
663
458
323
312
307
305
304
306
322
342
359
357
334
340
347
343
339
339
347
352
343
348
350
350
136
663
513
317
304
302
299
296
304
313
336
353
354
331
331
339
336
332
335
354
349
351
350
348
332
115
663
312
299
286
282
277
273
281
294
314
332
322
320
331
333
329
334
347
354
345
351
350
349
59
664
528
318
309
306
306
302
305
317
334
359
364
358
369
372
366
367
377
386
378
384
387
386
162
663
650
347
342
337
334
330
330
341
362
387
393
382
388
393
389
385
386
405
393
398
395
390
303
465
663
339
343
334
326
323
320
324
342
363
371
360
359
369
368
363
366
372
386
370
376
373
372
149
663
610
330
322
317
314
309
311
323
342
365
369
355
360
366
364
361
365
377
384
371
378
375
371
94
663
450
330
319
312
307
300
304
313
331
343
338
318
323
324
315
310
307
311
318
302
307
303
299
43
662
350
254
237
237
232
226
232
245
265
287
285
268
278
287
287
286
298
317
320
327
334
336
331
64
663
342
315
306
307
306
305
311
324
347
367
368
363
376
380
379
380
390
406
407
402
403
400
391
134
664
428
363
350
348
346
340
342
353
373
393
390
383
398
402
393
390
392
410
399
399
397
392
366
232
663
362
347
338
333
328
328
334
348
367
385
376
372
383
384
380
377
382
384
400
379
387
383
379
217
660
653
334
328
322
320
316
315
327
345
366
371
352
351
359
358
353
355
357
361
372
362
361
357
356
305
297
662
308
307
298
296
291
289
300
314
336
347
328
310
317
314
311
310
313
319
326
331
319
325
322
321
48
662
346
294
287
285
286
285
295
313
336
359
354
330
334
344
341
341
347
356
368
372
366
372
373
372
106
663
418
344
337
334
332
332
340
357
379
397
387
355
356
359
356
353
352
358
370
363
363
362
360
354
108
662
338
321
312
310
309
308
316
335
355
372
360
331
336
339
335
335
340
346
358
349
358
358
359
180
661
557
333
323
323
322
318
326
345
369
391
391
366
359
367
367
362
364
368
381
381
382
382
379
368
151
663
354
342
333
327
324
321
331
347
369
383
365
339
343
345
339
340
342
345
360
351
357
358
355
284
380
657
317
312
309
308
304
309
322
342
363
376
349
335
340
342
337
336
343
358
354
354
355
353
339
108
663
327
313
307
304
303
301
312
327
347
364
358
343
355
360
356
354
361
376
375
368
373
369
368
70
664
463
336
327
324
320
318
322
332
350
368
371
360
369
373
370
366
370
390
383
380
383
382
374
102
664
403
339
330
327
324
319
319
330
348
367
368
357
369
375
370
367
375
388
390
383
387
385
383
97
664
473
347
333
331
327
321
323
336
354
374
371
358
367
372
368
365
366
372
386
374
381
379
376
297
446
663
326
327
320
317
314
314
322
340
362
372
350
342
353
353
347
345
350
360
362
355
361
357
356
98
663
424
323
312
310
306
303
308
325
345
362
357
331
335
341
339
339
340
347
366
353
361
359
358
269
437
661
320
320
313
310
308
309
317
332
352
361
348
343
351
354
353
354
361
376
372
368
368
365
357
87
663
367
325
315
314
311
304
309
323
343
363
362
351
363
366
360
361
363
374
378
369
374
372
371
118
663
549
331
320
316
310
307
308
319
336
359
358
343
351
359
356
355
357
366
380
375
375
375
374
368
96
663
379
333
323
320
317
311
316
331
346
367
360
343
351
357
353
351
357
361
365
375
361
367
366
363
186
661
578
322
312
307
304
301
304
316
334
354
356
329
320
327
323
316
316
322
324
336
325
331
326
326
261
317
646
288
279
274
273
270
271
283
301
320
331
306
290
296
301
295
296
299
304
320
307
314
308
308
242
289
653
273
270
265
262
264
264
275
295
316
330
324
318
325
331
330
334
340
357
364
355
360
362
360
106
663
528
335
335
330
335
326
340
349
366
392
393
386
387
394
393
391
402
407
415
404
406
404
406
149
664
550
372
356
355
345
347
348
355
368
393
391
385
390
401
395
384
389
407
399
397
399
394
393
143
662
381
361
352
345
342
334
337
343
361
375
378
371
380
384
377
376
380
393
387
387
388
386
377
156
660
358
350
341
331
324
317
319
331
351
366
357
342
348
344
336
329
326
340
327
331
325
324
269
283
656
273
269
258
256
252
251
263
277
298
309
294
285
295
300
295
296
309
316
313
323
326
328
81
663
391
310
303
302
303
306
313
329
349
371
365
342
347
353
352
349
349
366
364
367
370
369
352
189
662
335
337
329
331
329
328
338
359
379
393
373
354
362
367
362
364
372
381
375
385
388
383
148
663
569
352
344
338
333
331
336
346
364
384
381
365
371
374
373
376
380
394
386
390
389
391
252
627
662
342
341
334
332
325
322
332
345
364
372
366
372
380
379
375
378
395
385
388
386
384
240
640
662
332
330
324
321
314
310
314
330
350
359
351
359
366
363
358
361
380
368
371
371
368
278
466
662
317
317
311
304
300
298
305
319
339
352
344
346
357
356
351
354
371
367
365
368
368
356
122
664
355
322
312
308
304
301
300
315
335
353
343
337
346
349
344
343
352
358
351
356
354
351
52
664
409
304
290
284
278
272
275
287
302
316
309
294
299
300
295
294
295
302
304
298
300
301
294
35
662
279
261
250
250
248
249
255
273
295
314
307
289
299
303
304
305
312
331
330
335
340
344
338
138
661
330
331
323
327
328
331
347
367
391
414
397
373
376
379
378
377
382
392
402
391
398
398
397
147
662
485
364
354
350
348
347
355
371
390
409
400
368
369
376
373
372
375
383
396
385
389
392
389
242
658
659
347
343
340
336
335
335
352
370
391
392
371
359
367
365
362
364
371
385
382
379
382
376
376
110
663
393
340
329
327
323
321
330
346
365
383
374
349
351
356
351
354
357
362
373
367
364
363
359
356
102
662
347
319
310
306
303
304
314
331
352
371
359
330
335
340
333
333
337
343
359
350
358
361
358
264
514
659
322
322
316
316
312
316
329
351
372
380
357
342
351
353
347
352
356
374
367
369
373
368
355
155
663
335
327
315
315
310
310
319
336
355
370
350
324
328
331
320
317
317
334
326
324
319
314
304
43
663
276
259
243
240
235
230
237
252
270
282
277
264
278
276
270
266
277
294
290
291
294
289
174
504
661
250
248
247
253
248
250
259
275
299
319
319
319
332
335
339
342
371
364
363
370
372
348
262
665
412
352
344
349
344
349
358
369
387
404
410
408
419
423
421
420
438
432
426
426
426
422
148
664
626
364
359
353
352
350
348
358
375
393
390
386
397
400
397
398
399
415
397
402
397
392
182
664
662
326
324
320
316
315
314
324
342
359
363
350
356
363
364
362
364
367
388
376
374
370
365
306
406
663
310
306
299
298
295
297
307
326
345
360
343
332
339
345
343
346
352
358
366
374
355
359
354
353
75
663
397
312
302
297
295
294
301
319
339
360
354
333
336
343
342
346
350
355
371
359
367
365
363
285
446
661
319
321
313
312
310
310
325
345
367
377
355
334
342
341
340
339
343
358
353
353
356
355
350
92
662
345
317
306
304
303
301
310
329
350
369
356
329
332
334
331
332
338
352
356
349
358
356
356
99
663
497
325
311
311
309
306
311
326
346
370
371
351
352
356
354
352
359
378
375
372
376
372
371
74
663
448
333
324
319
317
317
322
333
357
378
375
356
363
367
363
362
364
382
375
380
378
379
328
339
663
329
331
326
321
320
319
329
347
368
379
362
351
359
359
358
359
363
379
367
375
374
372
230
654
658
325
322
320
319
319
321
337
355
378
380
356
348
355
352
350
351
360
374
364
372
370
367
273
497
659
326
325
321
321
318
321
337
357
379
386
360
344
348
344
341
342
349
361
352
362
362
362
233
598
622
325
321
318
318
316
321
336
357
380
381
349
337
346
344
339
342
347
360
351
358
358
357
259
475
651
318
315
311
311
309
313
329
349
368
376
344
329
335
333
334
335
342
359
353
354
353
353
327
189
663
315
309
301
300
297
299
305
323
345
360
348
336
343
344
344
346
352
373
363
367
368
363
307
326
662
316
317
312
310
306
305
316
332
355
371
360
353
364
362
358
358
363
381
364
373
371
369
220
658
660
323
321
317
312
309
308
316
334
356
366
353
352
360
359
354
360
373
374
367
369
368
368
87
664
535
329
318
316
312
311
311
324
344
365
367
356
365
369
365
364
367
385
378
379
377
373
317
337
663
320
323
317
313
310
305
311
328
349
366
357
350
360
358
355
354
373
365
366
365
362
343
161
663
314
307
295
288
283
281
283
299
316
330
315
298
305
303
297
295
308
306
300
301
299
295
21
663
321
253
240
238
237
236
239
255
277
296
292
269
277
281
282
284
292
301
321
308
321
322
324
224
477
601
304
303
304
308
312
314
331
355
379
391
370
356
364
366
369
373
381
391
404
395
404
403
403
352
358
662
366
372
373
370
368
366
379
400
423
434
410
384
386
388
384
385
389
404
397
396
390
386
370
131
663
350
325
311
306
302
295
300
315
333
349
329
303
304
305
299
301
303
320
309
314
314
311
253
304
660
274
275
271
271
269
273
286
306
331
345
326
317
327
330
330
336
353
361
357
367
365
372
123
663
562
342
334
330
332
333
340
358
375
397
391
369
374
377
375
374
379
396
381
385
379
377
188
662
660
322
324
323
319
320
316
323
328
348
347
340
348
354
352
350
360
369
359
354
357
358
94
664
556
310
306
306
296
304
296
305
318
328
328
313
321
324
322
317
333
325
317
312
300
290
86
664
257
241
235
239
241
246
248
267
285
300
302
304
320
324
324
333
353
339
348
351
349
116
663
623
313
314
313
315
321
328
342
360
380
384
374
380
385
386
386
406
391
394
391
392
241
663
662
328
330
326
325
320
323
335
352
375
385
369
369
374
377
373
398
385
382
385
380
282
649
663
338
346
340
343
339
337
344
361
383
391
375
369
372
371
370
387
381
370
365
366
327
318
664
317
310
300
299
297
293
296
310
328
341
331
319
323
323
323
336
341
334
341
341
336
81
663
326
299
288
288
285
282
285
299
323
340
338
328
334
337
334
334
353
348
350
350
353
219
605
659
318
316
311
311
308
308
321
343
365
375
361
364
373
371
367
371
394
390
388
385
392
310
489
663
344
346
342
340
338
339
348
365
387
394
370
363
370
368
367
368
381
386
379
382
382
376
126
663
384
331
321
316
313
310
315
331
351
365
350
330
333
332
327
329
338
346
335
341
340
340
63
664
354
300
290
287
284
283
290
309
329
351
340
316
322
324
323
326
330
347
338
346
348
348
173
662
569
317
309
306
304
300
304
319
339
364
363
333
330
334
333
332
336
348
352
345
354
352
349
85
663
353
319
312
310
309
309
317
336
360
381
367
342
342
343
342
345
349
371
365
365
363
365
261
492
661
321
322
318
312
313
315
321
335
358
369
360
356
363
357
357
359
383
376
371
372
372
335
267
663
335
325
318
318
316
316
324
334
352
363
360
363
369
363
360
362
381
369
365
361
352
266
627
662
291
293
294
294
288
282
282
296
312
328
332
336
350
353
357
376
407
390
391
390
389
149
664
617
330
325
317
321
318
325
335
350
366
370
348
344
350
344
348
360
362
344
346
345
325
301
664
304
282
269
274
270
272
273
285
295
320
315
312
307
310
307
312
329
302
298
297
294
13
664
403
257
239
235
229
234
237
247
267
290
290
286
288
290
294
304
314
331
315
319
323
314
233
663
299
309
308
314
313
314
328
351
373
396
389
375
383
387
389
393
398
401
388
387
385
368
207
662
348
344
338
338
338
345
368
395
424
439
408
366
360
361
365
372
390
383
388
392
393
169
662
499
373
362
359
359
359
373
395
420
443
421
373
355
354
350
347
362
353
354
348
342
208
565
571
305
297
286
279
283
286
305
324
341
341
303
288
290
289
290
311
313
319
325
326
238
442
657
291
286
283
282
285
288
301
327
353
359
337
329
335
326
313
328
335
333
337
340
237
511
651
331
317
317
324
323
329
340
364
392
404
389
390
401
395
393
418
407
410
410
408
299
559
656
362
361
354
344
342
335
338
353
370
376
362
365
366
360
357
358
373
380
381
391
396
362
359
663
378
372
359
355
347
343
349
364
381
391
376
370
379
376
373
374
378
395
382
386
383
378
173
662
564
335
324
317
312
312
315
332
353
370
366
339
335
341
339
337
339
357
355
360
363
362
302
373
652
325
321
318
318
317
322
341
364
385
390
356
336
340
336
335
337
349
348
343
352
343
334
126
662
305
296
286
282
281
270
271
291
317
312
299
279
286
287
282
275
284
299
288
288
286
290
152
515
424
267
265
276
261
266
265
285
307
333
342
330
334
348
347
346
347
372
372
371
377
380
366
217
662
351
355
346
343
343
343
355
373
395
406
388
377
385
380
376
372
375
375
389
375
383
379
376
124
663
423
337
329
327
325
328
338
354
378
393
384
360
359
364
361
364
365
370
384
412
376
385
391
224
662
526
353
346
350
346
341
342
360
383
393
387
355
347
345
341
341
340
341
349
332
337
332
327
119
661
401
287
273
269
266
264
267
282
295
312
302
270
266
271
269
266
269
288
286
287
288
292
245
212
655
266
263
261
260
263
269
283
305
333
349
338
333
344
346
346
354
367
380
373
384
385
386
112
664
521
360
350
348
347
346
349
364
385
407
405
387
394
396
392
392
397
415
413
412
414
412
400
175
664
415
369
359
359
355
352
357
374
393
409
393
377
383
383
377
375
379
395
387
386
385
382
366
168
663
349
335
326
323
321
317
328
347
369
385
368
351
354
353
349
349
360
369
374
366
372
370
369
79
664
480
324
315
315
314
311
315
331
349
366
357
339
345
350
348
346
349
353
366
357
361
360
359
321
269
661
313
313
309
308
305
306
317
334
353
363
341
316
319
318
317
321
326
328
340
330
339
336
337
191
599
546
306
299
299
297
297
303
324
345
370
373
338
321
325
323
323
328
335
342
348
342
349
350
349
104
662
430
327
321
322
324
325
336
356
379
403
396
362
353
355
354
356
359
363
377
374
378
380
382
363
207
663
348
347
342
344
344
345
357
379
401
415
393
364
365
367
363
364
367
380
377
376
379
381
377
121
663
422
344
336
335
334
331
337
357
380
400
386
355
352
353
351
352
354
358
370
362
367
368
368
335
265
660
325
329
326
326
326
326
340
363
386
396
370
346
349
349
349
350
354
359
370
364
370
368
369
350
201
662
331
331
325
326
323
323
337
357
381
394
369
340
340
339
336
339
342
347
358
357
357
359
360
355
114
662
344
327
321
321
319
318
329
351
373
390
371
336
332
333
326
327
330
332
336
335
324
331
327
319
107
660
381
277
266
264
259
259
261
280
302
322
316
282
275
277
279
278
281
288
303
298
302
303
305
301
25
662
305
284
275
277
276
277
285
301
324
347
343
326
334
338
338
339
347
353
377
367
373
369
371
264
549
662
315
322
318
318
320
322
338
359
385
401
384
378
389
387
385
386
390
410
403
408
407
408
372
315
663
379
366
358
357
351
349
354
373
394
405
395
388
397
397
392
394
398
404
417
406
412
407
404
345
404
663
350
354
348
345
341
340
346
360
378
386
368
358
366
365
358
357
362
366
368
381
368
374
372
370
311
358
661
324
326
320
318
314
309
323
342
361
368
343
326
336
335
334
334
342
348
354
364
358
359
357
354
311
262
662
309
310
303
301
300
297
308
321
341
360
353
345
352
352
351
350
356
363
378
365
369
366
364
224
639
660
317
315
313
313
310
309
319
337
358
369
360
362
371
371
366
365
369
386
378
379
374
370
342
201
664
334
318
311
307
304
302
308
320
342
354
345
337
350
349
346
348
351
359
369
353
360
358
356
163
663
658
302
295
292
289
286
286
298
316
335
334
313
312
323
320
315
313
318
323
332
316
323
320
318
104
663
524
273
265
261
