319
324
325
319
326
332
333
336
339
297
492
563
322
316
317
321
328
345
363
387
394
374
332
313
310
313
316
316
321
320
324
328
328
330
334
329
336
339
338
343
342
275
591
494
323
318
321
322
331
348
368
385
392
374
335
313
312
315
315
319
320
322
324
327
331
334
339
326
347
344
348
348
346
234
661
372
333
327
334
338
347
368
389
402
404
374
336
323
322
321
326
326
329
334
338
340
339
342
355
348
350
350
345
361
625
347
332
337
339
349
363
383
401
408
398
360
331
323
324
322
325
328
334
335
335
334
331
343
342
342
345
337
347
648
336
322
323
325
333
345
368
392
400
392
351
323
317
317
318
320
321
325
325
329
334
324
337
336
340
343
342
272
603
487
329
322
324
328
337
354
374
391
396
374
333
317
316
318
319
322
321
327
330
335
336
339
336
345
343
343
347
343
248
661
350
326
322
325
332
343
361
383
397
392
355
324
314
316
318
321
320
321
327
329
332
334
338
332
347
343
345
345
347
239
661
406
334
324
330
338
350
368
384
403
409
378
338
327
327
332
335
333
333
339
343
338
352
336
351
346
346
351
347
328
595
348
341
335
345
344
358
377
394
397
394
360
334
323
329
324
330
327
331
336
332
351
340
334
333
343
314
457
511
332
323
322
328
341
353
375
390
394
384
343
326
325
322
324
330
330
334
336
341
354
348
338
338
339
342
248
660
359
326
321
326
333
341
359
379
388
393
362
327
312
321
319
322
322
326
328
337
333
335
341
367
364
331
330
338
339
241
660
345
323
319
321
328
330
349
379
391
384
366
326
319
319
320
324
323
325
326
324
340
335
350
345
340
341
342
332
291
521
464
323
332
312
339
368
376
384
413
421
410
382
376
380
375
385
370
363
364
363
361
364
372
353
343
355
371
340
278
624
358
331
323
338
348
361
352
380
380
384
357
331
311
307
310
310
329
311
307
324
353
343
339
327
323
329
249
644
360
330
322
325
324
329
355
383
386
400
369
326
322
320
317
317
334
328
334
354
351
339
335
341
333
319
404
574
340
319
325
332
349
361
378
401
400
390
355
335
327
330
334
334
342
351
348
358
375
357
352
346
351
348
252
658
356
321
323
327
334
347
360
386
396
396
365
339
323
324
320
325
326
327
331
339
338
353
338
335
341
338
317
433
536
331
327
325
337
339
354
371
386
395
389
351
328
318
322
326
323
324
331
343
347
340
337
335
335
334
260
621
408
321
320
320
326
333
346
368
385
391
367
334
318
319
318
322
324
326
323
333
342
337
332
333
335
332
275
566
427
321
319
325
326
337
343
369
382
386
374
337
314
316
322
318
322
331
329
332
337
344
342
337
345
337
338
249
659
361
326
326
324
335
347
361
381
391
399
372
341
324
324
327
325
333
328
337
334
339
353
343
346
345
346
285
598
432
341
333
334
345
350
370
392
398
408
388
348
331
329
325
321
333
329
340
337
348
340
339
340
342
330
362
607
336
322
324
327
336
347
366
384
392
382
347
318
317
319
320
320
327
328
333
333
343
340
337
340
338
294
528
488
327
320
326
330
338
356
372
388
395
378
340
319
322
321
325
327
324
328
329
340
331
347
341
341
349
347
265
639
399
331
328
333
338
348
363
388
399
406
382
345
325
321
323
326
326
333
333
326
335
342
343
342
340
342
263
652
351
324
322
331
334
345
366
379
394
396
361
332
315
315
316
317
321
325
330
329
336
332
332
336
336
234
659
362
322
318
321
327
338
358
376
386
388
359
325
316
315
319
320
321
324
326
328
340
336
337
339
340
239
660
368
324
321
327
333
342
364
384
397
400
367
332
319
320
330
324
329
331
333
331
346
340
347
343
349
267
651
362
335
326
331
342
354
369
386
398
399
366
330
325
318
322
318
327
335
327
342
336
333
338
342
298
519
471
331
324
329
331
342
354
373
392
394
376
338
321
319
318
319
321
330
327
344
334
334
337
338
297
520
491
323
313
320
323
332
346
369
383
390
366
333
314
313
314
314
319
323
323
337
331
333
334
336
274
593
431
327
317
323
329
336
355
379
391
397
363
334
320
322
321
321
328
323
330
327
343
337
338
340
342
250
655
374
330
323
326
332
343
361
383
396
396
368
329
315
320
316
319
324
332
326
336
333
333
338
338
312
440
532
328
322
324
326
338
353
374
388
397
383
337
319
323
318
322
322
328
328
337
343
338
341
347
345
253
660
352
327
333
332
338
350
366
386
401
393
357
328
322
326
327
330
332
332
331
342
345
344
347
350
343
309
656
343
324
324
331
342
346
373
390
402
393
353
330
324
319
322
323
324
330
327
333
339
338
340
341
346
268
652
351
329
327
330
341
347
373
388
399
393
360
330
323
319
326
327
327
341
331
346
336
339
341
343
293
548
477
335
328
326
331
344
357
378
392
396
371
335
320
322
324
322
326
330
335
331
347
343
341
342
344
303
510
520
330
324
324
328
337
350
371
389
398
380
341
329
320
326
324
320
323
323
322
342
338
334
343
341
292
571
445
340
327
331
339
344
364
388
400
408
384
341
325
319
324
327
333
328
332
336
341
338
346
345
341
273
657
349
329
327
332
340
351
367
387
402
388
357
324
318
316
323
321
320
331
326
337
335
335
343
345
285
578
453
327
323
326
328
338
359
378
392
400
369
336
323
324
320
325
327
328
332
334
348
340
342
339
342
256
656
396
326
321
322
331
338
359
381
392
395
362
330
313
322
313
317
320
329
344
334
331
332
336
334
246
658
351
320
320
323
334
343
364
385
396
387
354
325
322
319
323
329
331
334
339
347
342
346
342
343
265
633
405
331
325
326
333
343
356
385
395
393
373
332
322
320
322
319
322
327
318
335
335
339
336
344
332
374
575
331
320
324
328
340
352
370
393
396
384
345
320
322
322
323
323
327
334
325
343
337
339
344
342
295
553
474
333
327
323
335
341
357
376
392
401
372
337
321
321
322
324
325
328
334
335
333
347
341
347
345
348
254
660
351
334
328
331
338
352
367
391
407
397
361
334
323
324
327
330
329
328
333
336
330
353
342
349
346
346
248
658
370
331
328
331
339
347
369
384
405
400
365
329
322
320
321
320
322
328
332
327
347
340
340
343
341
257
652
387
328
329
332
340
347
367
382
398
396
363
332
321
317
320
324
326
331
336
338
341
338
337
340
340
319
646
337
325
322
330
337
353
372
391
402
385
350
324
319
324
323
326
328
327
334
335
341
338
340
344
342
254
659
349
325
327
326
332
347
363
386
399
389
354
322
317
316
320
323
322
325
329
334
335
334
343
343
341
344
347
263
660
351
329
328
328
332
343
364
382
397
391
356
326
319
322
318
320
323
324
328
333
338
339
342
340
348
348
352
357
354
294
588
474
342
334
337
342
352
361
382
398
408
387
346
324
324
320
326
328
331
328
338
333
344
334
341
347
345
346
353
323
469
523
346
338
334
341
344
361
377
398
402
390
349
322
322
321
320
322
325
333
332
336
330
335
339
340
343
345
313
476
510
335
328
326
331
343
353
375
392
398
380
342
320
316
320
322
322
324
332
330
337
328
345
342
342
347
345
248
659
380
331
329
330
332
348
363
382
396
401
365
333
318
322
319
320
327
323
328
331
329
332
346
337
347
342
343
338
608
343
327
329
334
337
354
373
389
406
397
352
328
319
320
315
319
321
324
330
324
335
337
334
336
337
300
529
470
330
323
328
331
341
354
370
392
397
376
333
318
315
319
319
324
324
324
330
333
338
338
336
338
337
241
660
353
325
320
327
330
344
361
378
391
388
353
318
316
313
318
322
322
327
333
337
346
337
340
341
340
297
521
487
329
325
324
337
335
353
381
394
400
381
343
320
317
321
320
324
321
333
329
349
339
336
341
343
305
507
484
335
324
333
336
346
369
379
400
407
386
344
326
326
323
329
329
335
340
350
344
342
339
342
340
265
659
347
323
323
327
331
343
360
384
393
383
346
317
316
317
318
321
323
326
333
345
337
333
335
337
337
264
659
334
321
320
323
330
342
359
381
396
385
346
319
315
322
320
321
319
326
330
334
344
338
340
338
337
336
328
642
334
322
323
326
337
348
369
390
401
390
353
324
322
319
324
319
318
325
327
322
334
337
331
341
343
317
439
516
334
323
327
327
336
353
375
390
399
381
343
320
318
321
320
322
328
329
333
331
341
336
341
341
339
247
659
355
326
322
329
333
346
360
384
395
391
355
326
315
316
318
321
324
329
330
335
337
337
345
345
342
347
344
263
659
346
330
328
328
333
347
367
385
398
392
357
327
318
319
321
321
325
326
329
333
335
333
334
345
343
346
346
343
342
640
340
330
330
335
339
352
374
391
403
393
352
324
320
317
319
320
323
324
329
334
334
336
337
346
344
344
346
325
437
525
338
332
325
331
344
353
372
394
403
391
354
326
316
320
319
322
330
328
336
332
350
339
342
342
343
313
469
523
334
327
326
334
341
355
377
394
399
382
342
318
319
321
322
324
325
332
333
346
351
348
337
339
340
342
277
660
332
324
320
323
332
349
367
387
397
396
354
326
323
325
322
326
325
333
332
339
355
351
338
339
338
339
265
612
418
328
324
325
338
342
360
380
395
400
373
335
319
322
320
324
323
326
326
332
337
348
339
335
332
334
331
260
657
338
320
323
325
336
344
369
384
404
394
362
333
321
323
326
332
329
335
336
343
360
356
345
339
342
343
273
612
419
334
332
334
340
352
368
389
400
412
384
348
333
335
333
334
334
339
334
344
353
362
349
343
340
340
335
357
553
340
327
331
333
343
354
378
392
405
395
354
326
325
315
322
320
325
336
350
355
337
333
335
334
327
352
580
334
323
322
332
341
352
375
391
401
384
349
322
319
319
318
322
329
347
353
332
330
333
328
323
338
599
324
312
315
316
329
343
361
383
391
377
339
315
315
314
313
315
326
343
346
326
328
327
329
303
450
511
321
315
319
322
336
351
371
390
396
375
337
322
319
321
325
323
332
344
352
335
341
336
337
332
362
593
332
323
325
327
338
353
372
388
399
381
351
324
316
317
321
322
322
330
334
334
336
336
336
339
276
639
348
325
324
331
331
353
369
391
398
395
356
326
323
326
323
331
331
341
348
343
339
341
346
321
437
549
338
322
327
330
339
357
379
390
394
378
334
321
320
316
320
315
330
331
343
334
338
337
338
304
502
493
326
322
324
329
341
350
373
392
399
374
338
319
320
322
325
324
329
332
332
350
338
338
339
342
265
619
414
328
323
326
331
338
361
378
392
398
364
335
319
320
316
322
317
321
323
330
321
327
333
332
335
331
315
412
555
326
318
317
322
331
347
370
385
394
386
342
326
321
319
325
326
327
331
332
339
343
337
353
346
353
354
352
260
660
353
334
333
335
344
351
372
397
406
401
376
339
327
323
330
325
329
328
334
335
334
334
342
341
342
339
343
320
442
504
335
330
327
335
341
357
378
391
400
392
352
330
323
322
320
324
328
332
338
332
349
337
339
340
341
288
560
452
330
319
327
330
339
354
376
390
396
372
338
313
315
315
320
316
326
330
334
340
334
334
335
332
259
618
450
322
317
323
322
334
352
373
389
393
363
330
320
316
318
321
322
330
332
340
351
355
342
343
341
339
311
463
574
331
323
323
333
339
353
373
390
399
381
341
321
319
319
324
325
327
334
335
336
336
342
342
352
349
345
344
346
346
240
661
357
331
327
328
338
348
364
385
393
399
367
332
317
321
324
318
324
326
330
334
334
337
354
363
346
341
340
341
325
391
617
328
319
321
327
330
349
369
383
393
383
348
318
316
320
323
326
321
328
328
335
332
338
350
359
344
337
337
339
305
478
530
331
328
329
330
342
356
373
393
400
390
351
327
322
324
326
330
328
335
339
340
343
342
346
361
368
350
343
344
342
299
528
487
332
329
332
332
343
355
379
392
400
392
353
326
321
325
326
330
329
333
337
337
339
340
353
362
344
341
342
337
331
366
592
334
324
325
332
338
353
368
389
397
391
359
328
318
320
321
323
325
327
331
331
337
338
345
361
350
342
339
340
336
272
652
338
323
327
330
337
350
364
387
392
396
365
331
319
321
320
327
323
329
332
333
337
340
360
350
340
335
335
343
256
635
368
325
328
335
337
352
369
387
400
406
378
342
325
327
321
322
330
330
330
339
355
354
337
338
336
336
305
475
488
329
322
325
330
338
352
370
390
391
381
346
324
324
323
330
335
338
345
366
364
343
341
339
340
323
400
609
330
322
323
331
335
350
370
391
395
384
349
324
323
320
323
324
326
330
339
356
351
337
333
337
335
285
537
451
325
318
323
330
340
354
379
388
399
375
337
314
313
314
313
315
318
326
326
327
333
354
350
333
332
334
333
247
646
386
325
319
324
328
336
353
376
386
395
371
340
324
320
324
324
327
326
329
333
338
355
355
341
338
338
340
285
563
436
328
322
327
333
340
359
377
393
403
380
349
326
316
319
318
326
330
332
331
336
351
356
347
327
337
336
299
514
439
329
332
328
332
344
364
373
390
397
388
351
328
318
321
316
322
331
327
348
360
337
339
333
336
336
252
653
352
328
323
329
335
349
362
381
394
390
358
333
313
318
318
319
323
333
355
356
334
332
335
333
333
298
652
332
321
321
329
338
345
364
379
389
391
349
323
319
322
322
323
327
330
342
358
347
337
331
339
336
240
659
385
324
320
330
334
346
363
383
396
391
372
337
328
325
330
326
332
336
357
356
344
337
338
338
334
364
616
330
319
324
327
337
347
370
387
394
384
346
325
320
324
320
327
327
342
358
348
337
340
338
340
256
650
392
333
326
327
338
348
363
382
402
401
372
336
324
325
325
324
329
330
329
343
362
352
342
338
339
343
265
629
388
335
323
327
338
345
364
380
393
396
381
341
320
317
321
320
319
329
326
345
351
340
334
332
336
332
247
656
351
327
326
328
336
347
362
383
390
389
360
330
315
321
318
324
327
329
347
352
342
330
331
335
331
245
657
379
325
318
321
327
336
352
371
390
390
365
329
315
316
313
317
320
322
326
324
337
342
339
334
334
337
337
238
658
357
322
319
323
332
340
359
376
391
393
364
331
318
319
320
322
321
325
327
332
333
338
346
349
341
340
340
340
328
362
608
333
319
322
324
331
349
364
382
388
386
351
323
318
318
317
318
321
322
329
326
331
336
331
336
345
347
342
343
340
341
330
389
592
334
330
330
334
339
354
372
391
401
393
365
333
330
326
329
332
334
336
338
338
343
344
344
347
354
354
348
348
350
350
261
655
398
334
333
333
340
348
357
384
394
400
383
342
327
327
323
328
333
331
333
334
338
346
350
355
348
346
344
344
284
587
413
338
333
338
344
353
369
384
398
404
390
354
335
322
324
327
331
332
333
333
341
352
345
338
340
341
338
261
636
390
327
328
330
339
342
363
377
389
399
377
344
320
319
322
321
320
327
329
341
350
343
334
334
338
331
257
614
409
319
321
322
327
336
350
374
387
392
372
334
316
319
318
316
324
323
325
336
348
343
335
332
332
335
290
527
476
327
323
320
326
335
351
375
385
392
378
343
322
318
317
322
325
329
326
330
333
340
346
343
339
340
341
337
244
659
375
328
322
331
336
343
361
383
395
396
377
340
327
326
323
328
329
334
333
338
335
342
346
348
348
341
346
342
289
563
431
329
333
336
343
349
365
389
398
406
392
353
332
325
323
327
329
331
329
334
339
346
339
335
336
339
334
331
595
339
325
324
328
334
347
369
379
394
392
352
321
315
316
316
317
324
331
330
335
341
337
331
335
334
323
379
585
327
316
319
327
331
344
364
379
389
379
344
317
318
309
315
319
323
323
325
333
343
343
342
340
344
341
263
632
411
334
327
330
335
345
362
378
394
400
375
345
324
323
324
328
331
329
334
335
340
341
341
347
346
347
351
349
257
659
364
333
330
334
338
349
360
385
392
398
369
337
319
317
321
320
322
323
326
327
333
336
327
337
339
341
339
343
284
547
433
328
321
323
332
336
354
373
392
395
381
344
317
312
315
315
322
321
322
326
327
327
333
336
335
339
339
338
303
623
343
326
328
326
336
352
363
382
392
388
360
325
317
315
320
317
325
325
329
335
337
331
343
343
339
346
339
293
539
469
331
327
330
332
341
351
375
390
396
383
347
326
320
321
325
329
331
334
337
335
333
346
345
341
340
344
343
255
659
355
329
325
330
336
348
365
382
395
398
367
334
322
323
327
327
329
331
334
335
338
338
344
347
346
346
346
348
258
656
383
328
330
333
339
345
367
377
397
402
382
340
321
326
318
321
326
328
333
332
338
331
344
339
339
340
341
263
629
384
326
322
331
336
341
359
375
388
397
372
341
325
322
325
319
328
324
335
332
347
336
334
335
338
327
390
596
331
322
326
327
334
363
373
388
382
376
348
324
313
316
320
317
323
331
343
343
334
336
338
339
248
660
380
327
322
329
335
346
363
381
390
391
364
336
321
325
325
325
329
341
337
352
341
338
339
340
335
298
659
336
322
321
325
335
350
369
381
388
384
349
329
322
321
324
326
329
336
334
333
338
341
340
341
344
336
333
656
337
320
321
327
335
343
365
382
389
385
350
321
320
319
326
326
327
329
332
332
336
339
334
342
343
343
344
345
331
409
632
333
324
326
327
336
346
364
385
391
386
349
323
318
321
321
324
324
329
332
334
339
336
337
339
338
337
341
344
339
345
346
339
349
653
335
328
321
326
336
344
362
381
390
389
359
331
318
321
320
324
326
328
329
335
336
337
341
343
346
340
351
346
346
349
349
254
659
403
332
328
333
335
344
359
376
391
395
377
339
322
316
321
323
323
326
329
331
334
336
337
339
341
348
342
348
345
349
348
348
251
660
370
331
329
331
334
343
356
379
389
394
374
339
323
318
320
321
323
326
329
331
334
337
339
337
339
344
335
349
343
345
349
347
289
582
457
336
328
330
335
342
355
375
392
398
386
350
322
321
317
316
322
324
325
328
333
334
336
337
339
339
341
344
346
344
346
339
348
629
342
329
333
333
338
349
367
386
394
396
363
332
317
322
320
324
324
330
330
334
336
337
340
341
338
347
343
343
348
342
260
651
405
334
331
331
335
350
361
383
395
404
387
345
320
326
327
326
329
333
328
332
339
334
345
344
343
343
346
343
345
293
645
347
330
324
330
338
349
363
385
396
399
369
332
316
317
318
321
320
328
329
330
325
329
339
334
340
341
340
278
651
347
332
323
327
333
347
364
385
395
396
362
327
316
318
321
326
326
330
335
336
332
344
341
344
343
345
271
627
424
336
324
334
337
342
359
380
395
398
382
347
318
321
323
327
329
327
330
337
328
347
341
344
345
347
303
534
484
338
326
329
334
343
359
376
390
398
387
345
319
317
319
323
324
324
329
329
334
333
331
343
341
343
341
343
246
658
369
328
325
329
334
340
358
376
392
397
375
334
318
315
319
321
320
323
329
328
334
331
332
343
342
342
343
343
259
644
390
328
323
326
334
340
356
379
390
399
379
337
315
316
316
318
320
319
328
333
324
342
338
337
338
334
339
326
605
346
327
325
332
343
349
366
384
399
391
361
330
323
321
320
324
331
337
329
330
343
334
340
342
339
264
629
419
327
323
325
330
342
359
376
386
395
368
332
318
313
320
324
318
325
333
323
336
332
345
340
339
327
384
609
330
315
322
330
335
343
367
389
388
399
333
321
319
324
320
327
330
329
327
343
347
350
336
340
340
327
638
340
325
330
328
334
356
370
383
395
389
365
326
327
318
320
321
328
337
324
335
337
332
346
339
347
300
656
347
334
326
329
336
347
362
388
399
386
368
325
326
328
323
336
337
331
332
348
335
345
349
338
289
550
461
337
328
330
337
345
358
382
394
400
383
340
326
324
327
327
327
330
331
342
334
338
339
341
325
407
539
337
330
330
339
344
360
377
395
402
394
347
329
326
331
324
329
329
336
336
344
338
342
347
347
334
412
537
351
312
326
332
343
358
370
391
383
383
351
324
317
318
316
325
329
330
343
337
337
339
336
338
263
658
354
328
329
336
346
353
373
387
395
392
364
326
325
321
326
324
332
341
346
346
336
342
339
337
238
660
387
324
317
324
325
344
358
379
389
392
364
326
314
315
315
324
326
327
331
342
344
336
338
340
338
245
660
356
319
321
327
330
341
357
381
387
384
359
323
319
321
319
320
326
324
322
334
330
330
343
340
345
341
343
245
660
353
325
317
325
326
343
356
377
390
387
359
324
312
312
317
318
316
326
323
330
329
327
342
342
339
340
345
344
252
659
357
323
330
333
335
344
364
383
393
395
368
335
318
318
321
324
324
328
329
328
333
337
338
347
347
347
341
343
345
255
658
366
332
331
334
339
350
370
391
401
405
381
344
322
327
328
324
328
331
332
335
341
341
350
340
342
342
339
337
342
594
340
327
331
336
341
352
373
388
399
393
357
328
315
320
320
322
329
326
332
331
342
347
343
337
333
337
337
243
658
376
323
318
324
332
345
355
378
391
394
369
332
318
321
318
323
328
325
330
338
337
340
349
355
345
347
342
343
346
249
659
358
334
330
335
338
352
365
392
400
400
368
336
324
323
323
330
350
311
328
330
340
335
350
352
345
338
337
340
334
259
658
346
325
326
328
339
347
367
382
396
400
360
335
318
324
318
324
325
329
332
334
334
337
338
359
354
339
346
343
341
264
601
422
328
322
327
335
349
356
378
388
397
382
344
320
318
323
321
324
330
332
335
336
338
356
358
341
341
345
343
289
546
460
338
328
333
338
343
365
375
399
399
388
352
326
320
316
328
332
328
337
331
341
362
359
345
341
342
344
342
339
588
344
333
336
335
352
360
375
397
404
399
369
339
327
329
329
330
333
330
341
355
360
338
338
337
338
329
354
630
328
321
322
326
335
345
364
382
393
388
347
319
322
319
320
323
324
327
345
354
341
336
333
336
332
235
661
384
321
320
325
330
338
353
374
386
392
365
329
318
319
320
323
328
325
329
334
357
356
341
335
337
338
311
442
579
330
323
323
328
335
354
367
386
394
387
343
320
316
321
326
320
324
331
331
330
336
347
359
347
340
335
341
335
242
660
349
324
323
327
334
345
364
384
396
402
371
335
323
319
329
329
334
332
338
336
340
359
357
349
345
343
342
327
381
597
334
323
326
328
341
349
371
388
394
392
353
326
316
316
320
322
322
325
329
334
336
349
355
342
340
338
336
335
302
640
343
325
326
334
341
352
370
389
399
399
367
336
319
325
323
328
327
331
333
334
338
350
357
341
339
338
342
322
431
506
337
327
330
333
342
356
376
393
397
393
359
325
319
319
318
325
325
330
334
344
358
343
334
333
341
331
236
659
370
323
319
324
334
342
359
382
394
398
372
332
324
322
327
325
333
331
334
356
357
344
338
340
341
337
255
660
343
330
325
331
337
348
366
382
396
390
367
326
319
320
321
325
328
332
331
332
338
353
347
337
338
337
338
244
656
378
325
322
325
330
343
356
379
392
395
371
339
320
318
323
325
327
331
335
335
336
342
360
348
339
338
340
340
243
660
369
329
322
330
334
349
358
377
396
397
377
342
326
321
324
325
329
331
330
333
342
355
349
337
341
339
343
259
626
384
333
328
336
341
352
369
388
403
403
392
347
329
324
319
320
329
328
331
345
357
352
336
338
332
335
283
565
425
327
329
328
334
347
366
382
394
400
385
346
325
318
321
326
323
330
342
350
340
333
328
332
332
278
529
441
320
317
318
326
335
348
370
385
389
374
333
317
315
320
318
319
325
328
343
346
332
333
336
335
328
323
625
338
325
323
331
337
348
371
385
394
394
357
329
322
322
322
323
331
331
332
345
354
345
342
343
343
336
254
654
377
329
325
328
338
345
359
380
392
402
377
340
325
319
328
327
331
338
333
345
352
347
340
342
344
339
260
643
390
332
330
331
339
348
363
383
394
398
380
338
323
322
321
322
323
326
328
330
338
344
335
336
340
337
329
358
573
337
331
332
338
343
354
372
389
403
395
361
326
320
328
326
326
331
334
340
353
356
346
339
340
339
338
264
657
347
333
327
332
341
349
362
385
396
396
367
329
322
320
324
326
333
328
329
338
352
353
339
338
341
336
337
331
590
334
325
325
330
339
349
367
385
393
390
359
329
321
317
321
325
326
330
331
334
335
349
357
340
343
337
341
335
307
604
341
324
329
335
342
354
361
384
400
398
367
336
321
321
327
323
324
332
335
342
350
349
339
337
338
341
322
417
514
335
327
334
336
343
355
372
389
395
393
354
328
320
321
322
326
330
336
339
349
354
342
339
340
339
338
259
657
347
329
329
330
336
346
365
381
390
394
361
329
315
318
320
322
321
325
335
343
349
338
332
336
333
332
255
654
346
326
331
330
332
353
367
384
398
399
369
339
322
323
325
328
330
330
341
331
338
345
346
343
338
345
341
307
492
456
339
331
333
333
347
358
376
394
399
396
360
326
317
323
326
331
334
331
339
347
347
347
340
347
348
302
501
477
334
325
332
338
343
357
376
394
398
384
347
323
321
322
320
327
328
333
343
351
340
337
340
340
335
244
659
353
328
321
332
336
346
364
379
392
395
370
336
321
319
323
328
326
333
331
338
353
349
342
341
341
343
284
569
450
336
328
330
336
342
361
373
394
408
383
344
330
318
317
321
320
324
329
332
342
336
337
330
336
335
260
634
353
319
321
322
335
343
361
379
393
391
362
327
317
314
318
316
316
327
325
343
335
333
333
338
335
249
654
359
325
324
328
334
350
362
383
393
397
362
333
320
323
323
324
329
336
344
347
345
340
341
344
340
290
657
347
331
329
333
339
351
371
385
398
394
359
328
323
327
326
329
329
331
341
349
337
343
338
342
331
381
591
334
331
330
332
339
351
370
389
400
386
351
329
323
325
326
329
330
330
333
345
344
348
357
345
310
443
509
326
329
326
333
334
349
374
388
399
387
343
326
317
318
322
321
330
331
332
344
338
339
342
341
290
564
433
335
328
337
335
345
366
385
395
407
380
342
328
317
321
321
322
326
337
335
339
339
341
340
339
249
653
384
327
320
328
335
342
360
377
391
399
364
332
315
314
317
320
324
327
330
331
336
338
341
339
341
337
245
659
388
327
324
328
331
341
357
378
393
398
367
335
321
317
316
323
330
330
333
335
338
328
341
343
343
346
348
341
351
639
343
331
330
332
337
355
370
389
399
394
359
331
321
324
325
325
330
331
335
339
341
342
336
351
343
350
349
348
258
659
366
338
326
332
336
345
362
386
398
397
374
331
320
316
319
318
321
328
329
330
335
326
340
339
348
341
336
302
507
474
337
329
325
334
341
355
375
390
394
388
349
323
320
322
323
319
329
335
327
341
329
341
339
344
346
345
321
456
554
336
329
329
336
339
354
370
391
399
386
354
327
321
318
319
325
327
326
332
335
337
337
339
348
345
352
346
345
286
659
345
334
327
334
337
346
366
384
398
403
368
336
324
323
322
327
326
332
333
338
337
335
337
343
342
344
348
343
278
658
351
328
330
332
340
345
366
386
395
400
370
335
322
319
324
328
330
333
333
334
336
340
337
349
344
347
350
349
261
655
381
340
330
335
341
355
369
384
404
402
382
348
326
326
326
321
324
333
332
335
336
328
342
340
342
344
344
265
651
368
335
329
333
340
349
364
384
393
399
371
337
324
322
322
329
326
329
337
336
337
337
344
341
343
342
342
257
647
413
328
326
326
334
339
354
373
388
395
378
334
317
314
318
320
321
327
328
328
338
333
346
342
342
345
347
290
558
466
336
326
332
333
339
357
378
384
396
383
344
324
319
320
322
324
322
332
329
334
334
329
344
339
342
345
348
264
637
402
332
327
328
334
345
357
380
391
401
380
344
330
319
324
324
324
331
327
335
340
333
346
338
337
340
341
297
517
448
331
328
334
332
344
358
376
398
401
390
355
326
320
319
323
325
326
326
334
331
347
339
339
344
344
295
561
443
335
328
332
332
345
357
375
395
402
384
343
325
320
322
322
326
330
336
339
338
348
344
340
344
346
275
598
453
328
324
326
331
339
352
371
387
393
379
337
319
318
318
320
322
323
334
332
339
340
341
336
343
338
244
659
372
329
322
332
333
351
362
381
396
401
372
336
320
325
320
324
325
326
331
334
343
338
338
347
346
336
373
574
333
327
332
330
342
356
372
394
404
397
358
332
323
324
324
329
332
336
330
343
344
342
343
348
336
380
614
335
329
327
326
336
349
365
386
397
384
349
323
319
320
318
319
323
326
330
334
344
336
341
344
343
248
660
414
331
323
329
335
340
357
383
394
400
379
337
324
324
329
327
324
326
334
336
334
346
340
346
344
357
316
456
565
326
327
335
330
341
351
369
397
392
371
348
307
320
329
318
317
319
315
333
316
339
336
328
345
351
338
298
657
337
325
329
330
340
347
363
385
400
394
361
331
320
319
328
328
331
336
337
347
340
337
343
346
291
566
430
329
327
330
334
344
357
374
399
401
379
343
317
309
316
314
325
330
341
339
330
337
339
332
255
656
352
327
323
327
330
341
363
379
396
385
358
326
312
312
316
323
320
335
347
340
334
332
336
335
275
612
426
325
326
328
339
341
362
385
403
405
389
346
327
325
333
325
331
335
337
342
348
345
345
343
344
320
461
516
334
325
331
328
340
353
374
388
393
390
350
321
316
316
320
316
321
322
328
337
337
334
335
335
334
256
649
351
322
326
329
330
346
363
386
394
398
366
335
320
320
319
328
327
337
337
345
338
333
342
343
293
532
470
328
323
328
334
340
356
380
391
402
379
347
324
322
321
324
325
334
338
348
342
341
342
343
346
247
659
358
333
326
328
333
344
359
385
396
393
365
331
320
323
322
324
328
333
337
341
349
348
347
349
350
336
416
589
341
330
328
334
344
352
372
387
398
386
352
327
320
320
321
321
320
325
330
330
339
338
337
338
339
283
566
435
328
323
326
329
335
356
372
388
395
374
339
318
317
315
318
322
324
328
336
330
343
342
338
341
340
267
625
395
329
327
326
336
340
356
369
388
397
371
336
316
317
315
315
318
325
325
327
340
337
333
340
339
295
531
443
335
325
329
336
348
362
379
394
405
389
347
328
325
324
325
332
329
339
335
349
344
343
345
342
322
448
533
335
328
329
333
343
358
375
392
403
390
353
328
322
323
327
328
331
333
339
342
348
348
343
345
344
259
658
391
330
329
332
342
348
366
382
399
401
377
340
327
327
328
326
325
330
334
336
339
344
343
343
347
344
342
280
657
346
327
327
333
339
349
368
385
396
394
365
330
320
321
319
323
323
323
331
336
337
337
352
345
348
345
352
306
519
469
332
327
330
336
341
361
375
394
399
391
352
324
316
321
324
324
326
337
337
330
349
342
341
340
343
292
547
436
330
324
326
337
344
361
377
391
397
387
342
326
313
320
322
325
329
336
332
347
341
341
344
342
273
608
425
329
322
330
331
342
359
377
391
398
374
335
322
319
320
325
326
327
337
344
343
336
336
339
341
258
653
403
324
320
328
332
342
359
379
391
398
371
336
322
317
321
323
328
327
333
337
347
343
339
343
347
342
296
657
344
331
330
334
338
354
375
387
401
399
364
330
324
327
325
328
333
332
336
339
337
349
348
352
353
349
338
420
565
338
336
330
340
341
360
376
397
404
392
361
330
320
324
322
326
323
328
330
331
343
339
338
340
335
331
374
562
336
324
326
328
337
353
370
385
397
389
353
327
318
312
321
326
329
328
333
342
341
333
339
343
337
253
659
347
328
321
327
333
342
362
379
395
393
357
327
314
316
324
320
324
328
334
338
343
342
340
338
342
326
388
596
334
322
325
326
333
349
375
391
399
389
351
326
322
322
326
329
329
332
338
339
350
345
348
346
348
270
644
400
340
334
335
346
351
365
386
406
400
379
341
327
323
328
325
329
329
338
336
350
342
345
346
345
328
432
529
336
330
332
335
343
359
373
395
405
392
349
325
320
322
321
326
326
338
335
349
341
339
348
344
286
575
449
330
325
329
337
346
365
380
394
406
375
338
324
326
320
325
329
332
332
333
343
347
343
346
346
342
288
658
343
327
330
335
331
353
370
387
397
393
362
326
320
323
323
324
327
326
334
330
328
346
335
347
344
346
257
656
373
329
324
333
337
345
357
387
403
400
374
332
314
314
313
315
316
314
325
321
331
335
332
337
334
335
310
649
337
324
326
332
337
353
371
391
403
395
362
333
323
326
332
331
334
339
341
341
346
340
358
349
351
354
352
258
659
379
336
329
331
338
348
360
383
397
400
371
336
321
319
320
326
325
329
334
336
340
340
348
339
352
349
352
354
356
276
660
354
331
334
337
343
351
367
392
407
406
372
336
328
313
322
329
328
326
335
334
336
346
340
336
343
339
336
353
592
338
328
323
332
340
349
372
391
399
391
359
326
317
317
320
328
324
328
339
343
342
337
340
339
336
260
650
400
327
323
325
330
342
361
379
396
397
372
338
321
324
320
321
325
331
337
344
351
335
336
339
341
286
569
456
333
321
328
336
345
359
383
397
402
383
346
325
320
321
323
330
328
335
353
359
342
340
338
337
338
285
658
338
323
325
331
335
348
367
386
399
398
356
327
312
324
319
323
325
326
333
358
358
342
337
343
335
329
391
620
330
323
325
329
340
358
374
391
405
392
357
329
328
325
328
331
331
334
340
356
362
351
343
339
344
334
310
657
341
323
330
331
340
352
368
389
403
393
363
328
325
325
333
328
334
335
334
344
361
358
345
339
342
339
247
659
392
325
328
328
337
347
365
383
396
400
377
342
325
321
328
325
331
331
334
357
368
338
341
332
342
327
385
586
330
326
327
332
346
351
382
391
402
396
359
323
322
322
323
324
331
351
357
340
338
338
337
329
366
575
335
325
328
329
338
353
374
387
398
393
352
324
315
312
315
321
331
350
342
329
328
328
331
276
540
451
321
314
323
325
336
350
376
385
393
375
333
320
319
318
322
326
338
352
349
337
335
339
333
288
548
471
330
323
323
332
340
354
375
390
395
378
344
325
324
329
329
337
330
344
356
345
341
341
347
336
248
659
361
330
323
330
340
352
367
390
405
403
374
340
329
329
325
331
333
338
342
362
352
345
350
348
339
382
598
348
330
327
341
346
365
379
397
407
397
355
327
319
323
324
329
332
340
345
339
339
338
336
287
544
472
325
319
323
326
336
349
370
389
387
368
340
310
318
319
323
323
329
337
352
342
340
340
336
341
240
660
376
325
322
326
333
343
362
380
396
395
366
334
322
322
323
326
325
329
334
333
348
346
345
345
342
341
291
657
342
333
327
334
338
352
368
388
400
398
361
331
322
323
326
327
325
330
336
341
353
347
349
358
352
262
655
395
338
335
334
342
351
369
387
402
401
379
346
325
321
321
328
327
334
338
342
347
343
339
344
343
246
659
371
329
331
335
340
357
368
387
404
400
370
332
327
323
325
328
332
337
344
344
338
342
342
340
272
658
344
326
320
328
332
347
371
381
396
388
355
322
317
319
316
319
323
331
333
343
336
338
336
337
239
660
387
327
319
326
330
339
359
381
398
395
366
335
318
319
323
325
329
331
336
336
349
341
344
345
347
328
419
612
330
324
325
331
337
356
370
386
396
384
351
324
320
323
324
327
327
333
332
337
339
343
347
345
345
345
277
659
345
325
327
337
339
354
372
393
401
397
366
331
322
320
320
326
327
324
335
330
346
338
342
340
341
291
571
444
327
330
326
334
344
357
383
393
399
380
341
321
321
320
321
325
329
337
329
343
341
341
341
346
268
631
434
329
325
326
331
339
358
375
392
394
369
332
317
317
322
322
322
326
334
328
342
342
342
348
347
339
368
635
339
330
327
331
339
353
370
393
405
391
354
328
323
324
328
326
327
330
337
333
352
343
346
352
348
271
648
405
335
328
336
343
354
367
392
401
408
380
342
327
324
323
328
329
334
341
331
339
345
345
348
345
334
381
621
336
324
326
330
341
354
371
389
399
385
350
320
320
322
323
324
330
330
336
332
343
346
343
344
344
323
443
576
333
327
328
335
340
355
377
390
399
387
351
326
322
326
318
327
324
333
338
333
333
350
345
349
349
349
279
653
353
331
328
332
340
355
370
387
401
403
368
336
324
327
319
326
329
337
338
337
350
340
342
344
346
250
658
373
330
327
329
339
349
368
386
394
393
362
330
317
320
323
322
329
330
340
337
345
339
340
343
342
242
660
368
328
326
331
335
348
364
384
396
395
365
334
321
326
328
332
334
333
335
341
344
351
342
349
354
345
263
660
354
332
328
337
336
360
372
384
399
398
365
328
317
319
323
322
326
334
330
347
341
341
341
342
300
519
504
330
321
324
329
339
354
371
390
396
380
335
318
318
319
319
324
328
335
343
341
335
341
335
337
247
660
344
323
320
326
333
346
361
381
390
390
352
328
314
319
321
324
327
330
333
346
343
340
339
341
342
252
660
348
324
325
329
336
350
368
389
395
396
356
329
321
322
326
327
325
333
341
350
344
341
342
341
332
368
621
333
328
327
335
340
352
372
395
397
388
349
325
323
324
325
331
328
332
338
348
338
343
346
346
256
647
386
337
331
337
339
358
373
388
405
403
372
338
322
319
326
328
333
336
345
344
346
338
342
343
257
658
362
326
328
326
339
354
367
391
399
401
361
329
324
322
324
329
334
341
352
347
341
342
347
345
273
658
344
324
325
331
336
348
369
389
396
391
352
324
318
323
321
325
326
330
328
339
345
340
346
347
339
343
634
339
331
329
332
338
352
369
396
400
391
356
325
327
321
329
329
332
335
333
347
343
342
343
347
252
657
388
331
324
334
335
342
359
384
395
397
362
331
323
317
320
326
327
334
337
330
346
343
340
345
339
286
581
455
334
326
331
334
344
355
377
391
396
375
343
320
330
331
340
335
331
321
333
344
345
347
343
343
343
281
658
346
328
327
332
338
350
368
392
398
395
364
330
320
327
327
329
328
336
334
350
346
344
343
348
343
266
656
359
332
331
336
339
352
371
395
401
403
369
336
322
325
323
327
331
343
346
354
346
343
346
345
292
557
453
333
331
332
336
346
364
381
396
398
378
338
321
320
326
320
326
333
343
349
338
337
335
339
331
313
648
331
314
319
321
334
344
364
387
389
383
344
323
319
323
325
322
326
334
346
348
339
334
339
340
294
523
489
329
324
330
330
341
354
379
390
402
377
342
325
324
328
324
331
332
337
341
354
353
341
346
344
345
252
659
366
329
330
335
338
353
371
387
406
403
369
335
332
322
326
327
331
328
344
346
354
343
342
349
343
255
652
375
335
328
334
337
352
371
386
402
405
372
336
326
325
326
330
331
333
346
355
343
339
342
340
331
360
621
332
321
322
329
336
351
367
383
394
379
340
318
317
317
320
323
328
343
351
342
333
336
338
336
288
657
338
325
321
327
335
348
365
386
396
385
353
327
324
325
330
330
331
337
347
355
350
340
346
347
341
371
608
339
326
330
334
345
358
377
396
404
393
357
329
325
325
326
325
332
337
350
350
344
340
345
341
264
654
360
334
328
335
338
353
364
388
395
400
363
332
326
326
325
327
335
341
347
350
339
336
340
341
243
658
384
327
321
328
333
342
361
379
388
387
359
325
322
321
321
326
329
333
346
358
345
336
340
341
336
306
659
330
322
325
323
333
348
363
384
390
383
350
321
318
321
325
318
321
331
343
356
344
339
334
339
331
330
645
333
321
326
330
340
355
371
390
400
391
356
326
326
330
335
332
334
336
339
355
359
347
348
348
355
320
472
516
337
333
333
341
350
364
380
400
403
394
353
332
329
324
331
327
339
350
357
345
338
337
339
335
281
652
347
323
329
328
345
352
371
385
394
386
355
328
328
330
328
331
342
364
356
340
339
339
334
272
603
461
328
319
326
335
337
360
378
405
389
380
329
320
323
324
330
331
351
359
346
336
336
336
336
232
661
353
329
323
327
333
344
364
387
390
396
356
326
323
323
324
328
328
338
362
352
340
337
340
343
264
623
441
327
324
326
331
339
359
378
391
396
371
333
329
324
327
332
332
331
336
356
359
345
340
341
345
296
524
504
333
324
324
334
345
361
380
401
401
381
355
330
331
325
337
333
329
350
354
346
339
343
340
347
251
654
364
327
327
331
340
357
373
393
397
392
363
334
323
324
316
333
344
360
346
337
330
336
336
238
658
362
324
312
321
336
341
357
383
390
393
352
326
315
318
319
321
347
346
327
333
329
335
302
486
510
326
318
324
330
341
352
379
387
398
368
343
326
324
322
330
346
353
343
334
342
341
334
299
655
343
326
326
332
336
355
376
389
399
387
344
329
326
324
325
335
342
348
344
341
342
345
331
404
597
336
324
329
333
340
356
375
392
396
382
337
324
322
325
327
328
332
334
350
344
342
346
344
271
636
426
336
330
329
339
345
364
383
397
394
365
331
322
324
326
325
328
327
333
340
346
336
347
348
346
297
653
342
332
321
333
336
351
372
388
396
391
361
321
321
319
322
321
327
330
338
341
343
342
348
347
344
337
631
341
325
328
332
339
355
373
388
396
387
347
332
322
322
325
326
328
346
344
351
342
343
347
344
245
660
372
332
326
331
338
343
364
391
399
398
363
334
322
329
328
327
327
328
345
349
346
343
346
346
336
339
624
339
328
334
335
341
358
380
394
405
395
355
329
327
322
330
326
338
344
353
352
345
341
347
340
238
660
374
329
320
328
333
345
362
387
397
395
363
335
318
321
324
321
329
339
353
346
335
338
340
338
232
660
358
321
323
323
329
347
362
384
388
389
356
327
321
324
317
323
329
324
335
351
351
340
343
341
338
269
620
449
327
324
330
333
344
358
378
393
400
375
345
325
326
330
331
329
334
337
340
358
364
347
343
349
351
276
611
434
336
333
331
340
345
365
381
402
404
388
346
332
326
325
330
331
335
341
343
357
357
347
349
346
345
245
659
363
329
323
329
339
348
363
385
396
393
364
328
322
320
321
323
327
331
350
357
345
336
337
341
318
396
596
329
319
325
326
337
349
372
390
396
385
344
325
327
323
324
330
328
333
342
357
358
345
339
341
342
254
653
399
329
320
325
333
340
357
378
389
390
365
337
322
327
320
324
327
330
334
340
357
355
344
349
344
341
282
581
460
334
325
327
333
342
357
381
390
394
387
348
327
322
326
329
328
330
334
340
358
362
346
344
344
343
279
582
432
335
328
334
341
347
364
383
398
401
386
344
328
327
327
327
334
337
335
346
364
358
344
341
340
341
253
655
402
331
326
325
335
345
362
378
397
394
374
338
328
323
324
329
328
334
334
339
351
360
349
339
343
343
317
439
574
330
323
326
332
343
352
370
389
394
385
347
327
319
323
325
326
328
334
336
336
349
363
345
343
341
338
324
406
588
333
328
327
335
337
354
374
392
398
391
355
330
326
327
329
329
333
335
337
348
358
366
348
349
341
347
325
439
554
337
328
326
336
343
355
373
392
395
384
350
329
328
323
331
327
331
337
337
343
342
361
363
347
346
351
344
278
596
432
331
331
327
340
349
364
378
398
403
386
348
325
331
329
332
328
335
343
342
345
345
364
362
350
347
342
342
270
615
407
333
333
335
339
348
359
386
399
400
383
349
327
325
329
325
332
335
338
337
348
361
348
340
341
343
339
247
659
359
326
322
328
335
344
362
381
394
391
363
334
322
323
325
325
325
330
336
335
343
358
347
338
338
337
338
246
660
346
324
325
329
336
349
368
383
398
396
365
335
325
328
328
331
335
333
338
344
347
365
358
345
347
343
342
257
658
369
331
328
328
339
345
366
377
398
394
372
342
323
317
326
323
328
328
333
336
347
359
354
341
338
346
338
251
653
368
331
328
333
337
348
365
378
388
388
373
340
324
318
328
326
336
334
347
365
360
340
340
344
339
262
634
414
326
322
328
335
342
357
381
390
395
371
340
323
325
324
329
332
337
359
361
341
338
338
335
331
333
649
330
318
320
329
333
348
364
385
392
382
351
327
326
327
325
327
331
331
344
361
347
339
337
339
339
244
659
383
327
321
325
332
342
356
377
390
392
367
332
322
324
325
327
329
332
337
339
343
343
349
361
357
349
350
347
343
253
659
363
330
330
333
335
346
366
381
395
399
380
348
330
329
330
331
335
337
341
342
345
350
361
362
351
348
350
344
337
379
603
337
331
333
338
342
354
371
388
397
391
362
331
325
326
327
331
334
334
337
340
359
357
343
342
341
341
300
545
457
335
324
328
336
343
356
376
394
396
382
352
328
322
324
330
329
333
343
364
356
339
338
341
339
282
579
424
330
326
330
338
347
360
379
387
401
380
347
324
324
325
326
324
338
354
360
340
338
332
336
337
249
658
350
317
321
323
333
344
362
385
390
386
358
328
320
319
321
324
329
348
359
343
334
333
334
332
246
650
406
322
317
325
329
337
355
373
386
389
365
329
318
322
324
327
327
332
336
356
353
338
338
338
339
293
524
512
329
324
324
337
340
354
374
387
396
382
348
329
326
330
331
334
335
338
339
360
360
346
345
346
346
326
412
612
333
327
328
333
342
355
375
391
399
395
357
333
325
327
330
332
332
335
339
343
351
363
354
346
346
346
349
250
659
369
332
329
334
342
347
366
381
395
399
374
344
326
330
329
332
332
335
335
339
337
343
357
358
348
344
340
346
308
488
488
332
330
328
337
344
359
378
392
399
392
362
334
326
329
333
332
338
332
339
343
350
359
345
345
344
342
343
291
631
348
330
335
333
341
353
372
387
394
393
371
338
329
323
326
329
334
334
340
354
356
341
336
341
339
333
344
617
336
326
327
331
339
353
369
387
391
387
355
324
322
323
323
325
331
334
337
353
356
343
342
341
341
333
295
654
341
329
329
333
339
353
368
385
392
392
362
334
326
326
329
332
332
336
338
341
344
355
352
347
346
345
343
276
610
429
335
327
331
337
344
361
380
391
394
383
350
330
326
330
332
332
336
341
340
347
358
360
351
345
349
347
332
408
575
339
334
335
335
346
355
376
393
395
388
364
332
322
327
330
328
336
336
333
348
351
346
341
340
343
345
260
646
371
336
328
334
341
352
366
385
395
395
380
342
326
325
324
329
331
335
338
345
355
343
341
343
344
340
291
652
342
329
326
330
337
350
368
384
395
392
359
330
324
324
323
324
329
332
339
346
350
336
337
339
336
311
446
550
332
323
322
330
337
351
370
384
392
381
347
326
323
322
328
328
332
336
340
343
356
350
349
349
351
353
258
660
385
339
335
337
344
352
369
387
400
403
380
347
330
328
330
331
335
336
338
340
345
349
353
346
345
346
350
268
637
393
336
329
332
342
347
360
384
396
400
379
345
325
323
322
324
328
332
333
335
347
343
337
341
341
342
256
651
369
331
325
330
339
350
369
381
393
394
375
339
327
327
326
329
334
337
342
352
350
341
345
344
343
250
656
385
326
325
326
335
341
360
379
389
391
367
337
322
320
323
323
328
333
339
347
343
339
339
337
338
282
581
452
325
321
323
330
338
354
376
385
389
374
338
320
321
322
324
326
328
329
334
346
350
340
340
341
341
336
322
649
338
327
329
331
339
352
370
384
395
390
359
326
319
319
322
324
329
329
335
338
350
350
339
338
339
339
320
429
547
330
321
327
331
334
352
372
383
392
384
351
325
315
317
323
323
327
327
337
336
345
334
336
337
337
325
388
556
342
326
335
337
348
363
381
396
398
394
365
335
331
330
328
332
337
341
352
356
346
346
347
343
340
324
636
344
329
328
335
343
354
376
389
395
391
359
333
329
330
330
330
334
342
354
352
340
338
342
342
336
281
659
340
323
328
328
340
350
365
390
390
388
360
330
323
326
331
330
332
333
356
362
332
331
335
334
333
324
648
330
316
317
323
335
343
363
384
384
387
350
328
322
325
328
332
335
340
352
348
345
334
343
339
340
249
660
347
328
331
331
347
355
373
382
400
397
375
337
333
328
332
325
332
339
349
345
347
340
343
344
342
252
657
364
334
327
337
345
363
376
387
400
412
384
355
337
328
332
337
346
360
360
350
348
338
348
344
247
659
366
329
320
339
338
350
370
383
389
385
375
344
338
338
325
329
345
355
352
335
333
328
333
325
356
640
328
316
323
327
339
347
366
385
386
377
353
337
331
332
337
344
364
366
350
346
343
340
344
242
660
394
330
322
326
335
344
362
380
390
388
362
334
324
323
329
334
338
351
359
342
330
337
338
331
238
660
349
317
318
324
330
337
366
378
385
385
353
327
320
321
321
330
332
340
350
341
333
335
335
337
222
660
362
324
323
325
328
343
362
377
387
389
360
332
320
322
326
326
331
336
340
347
345
344
342
338
306
501
562
329
324
325
329
340
351
370
386
390
373
342
322
320
328
326
327
336
334
344
336
350
344
346
344
347
272
627
474
327
323
322
328
340
357
370
384
387
366
333
317
316
320
325
324
336
335
335
339
334
350
345
344
347
346
330
394
650
331
323
327
329
338
347
369
390
393
387
354
328
323
324
327
333
330
337
341
344
345
356
352
346
350
346
346
260
661
351
332
333
330
341
351
369
389
399
394
367
331
323
322
328
326
331
333
332
337
341
353
347
343
342
345
340
247
660
368
333
329
333
341
350
368
388
401
403
371
340
324
327
327
330
331
333
337
344
349
360
351
345
350
349
348
296
657
350
332
328
340
348
356
374
396
404
403
368
335
325
327
327
328
329
335
336
337
350
344
338
343
343
340
257
657
348
326
324
334
333
347
366
387
392
397
366
329
323
321
324
325
328
331
337
351
342
340
339
345
342
251
658
365
325
327
330
338
349
364
384
394
398
371
334
323
322
331
324
330
333
343
349
344
336
343
344
343
260
657
374
332
334
334
340
354
373
394
406
402
378
339
329
330
328
335
331
339
348
346
342
340
344
341
296
546
463
335
330
324
333
346
360
380
389
400
380
342
321
320
321
324
332
333
341
346
344
334
335
341
296
519
492
327
321
326
331
343
360
376
391
397
382
343
326
322
323
326
333
337
339
347
343
340
343
344
322
454
552
333
327
332
334
344
360
377
394
399
382
348
324
322
328
324
329
330
332
340
345
337
341
342
340
252
657
381
328
323
326
335
341
359
380
394
393
366
332
320
319
323
321
327
329
334
329
339
341
344
344
348
345
283
658
347
326
324
336
338
352
370
387
394
390
360
330
320
319
321
324
327
333
336
337
335
347
343
345
345
344
257
657
388
330
329
332
339
353
363
383
395
395
372
336
325
321
326
330
329
334
339
342
336
352
346
347
350
348
324
461
542
337
332
334
338
346
360
377
394
402
389
350
328
324
327
327
330
334
338
339
340
352
346
347
347
352
343
337
637
348
337
334
337
347
358
377
392
402
393
363
333
332
329
331
333
337
338
343
341
355
347
347
351
350
350
258
658
362
333
333
335
338
357
372
387
410
396
369
334
324
318
323
321
329
334
335
342
344
338
336
338
339
251
655
370
326
322
328
333
345
361
375
392
386
361
328
320
318
320
325
329
332
344
350
338
333
333
333
336
229
661
369
322
319
325
330
341
363
383
394
395
363
331
322
324
326
329
332
347
355
352
340
335
338
339
260
651
417
325
323
326
334
345
366
382
395
401
367
332
323
324
327
332
330
338
350
356
349
338
341
341
344
237
660
367
328
325
331
340
351
370
390
404
398
365
332
322
326
326
324
328
337
347
353
343
344
346
344
343
261
659
353
333
332
336
342
359
374
387
403
401
357
332
321
320
327
325
328
333
341
344
341
339
338
343
273
602
409
332
327
329
339
346
366
385
398
398
374
340
323
323
323
328
333
338
356
340
338
345
338
344
248
660
359
328
328
326
336
351
373
391
403
389
359
333
325
327
327
327
338
346
348
339
338
345
339
260
655
416
328
319
325
335
343
361
383
393
394
360
327
320
319
321
323
321
333
325
347
340
342
344
343
330
403
621
334
324
327
329
336
354
377
392
398
379
340
322
320
322
324
328
327
334
337
336
339
348
346
349
352
353
244
661
372
337
330
335
339
350
372
388
401
399
361
334
324
327
328
329
332
335
336
341
345
339
343
351
351
352
355
353
305
660
348
335
331
336
344
354
374
394
405
397
355
331
324
321
326
326
329
330
339
337
340
339
344
345
350
348
350
329
429
582
336
328
331
331
341
356
379
394
400
384
345
322
315
321
322
325
326
328
331
335
341
334
344
342
347
347
349
314
503
531
333
327
333
333
342
357
379
398
398
380
340
320
318
320
321
324
327
330
332
333
335
337
334
346
342
345
345
344
279
660
346
330
325
332
337
348
368
389
398
391
355
323
319
321
319
321
327
324
331
332
338
331
340
344
343
348
344
312
482
542
335
328
329
332
341
358
381
396
405
387
348
326
325
326
329
326
332
336
336
337
335
350
346
349
351
350
256
660
361
329
330
336
339
350
372
392
405
400
360
330
323
326
327
329
331
332
337
340
344
338
344
350
347
349
354
345
322
653
348
331
330
335
341
355
370
391
403
397
356
328
319
321
321
324
328
330
332
331
336
335
349
341
342
344
347
250
658
380
333
328
331
336
347
367
384
402
400
370
334
320
323
324
326
328
334
333
343
335
350
347
349
354
351
299
569
502
338
330
334
336
346
361
380
400
404
381
339
327
327
325
328
333
333
333
338
338
335
338
345
346
348
351
335
401
618
340
326
330
336
341
352
376
391
399
387
349
324
321
325
328
329
331
332
335
332
338
336
344
343
345
350
347
280
656
350
330
327
336
337
352
375
390
406
399
363
327
322
324
322
330
329
334
333
337
336
349
342
345
348
344
272
659
357
331
330
335
342
349
377
393
404
396
362
333
319
323
323
327
330
334
339
333
348
336
343
343
347
273
628
450
332
321
323
332
343
353
381
396
399
372
332
320
321
321
324
323
330
332
338
331
345
344
344
348
347
316
488
562
332
326
323
332
342
354
374
392
400
380
338
323
323
322
324
325
327
332
333
336
342
334
348
346
346
349
350
307
530
537
336
328
330
334
340
358
377
398
404
384
347
329
323
327
328
328
333
330
338
339
342
344
346
339
350
347
345
350
350
292
590
450
333
330
331
335
346
358
379
397
402
385
347
320
318
317
318
322
327
330
333
336
339
335
346
340
347
349
349
248
659
375
333
327
333
338
349
368
385
401
400
366
336
320
324
324
324
327
331
336
338
341
342
342
344
353
349
349
353
345
344
656
339
328
330
332
341
353
370
387
401
393
352
326
320
324
323
325
328
329
332
337
339
339
341
341
341
349
350
345
351
352
326
654
347
330
330
339
348
351
377
396
409
400
368
337
322
329
323
325
326
331
336
341
343
333
348
345
347
349
349
331
440
567
340
333
331
334
351
354
380
400
402
390
352
329
322
321
324
324
327
335
335
338
335
339
348
344
346
348
343
288
659
345
328
328
330
338
350
369
388
404
392
357
326
320
324
322
326
328
331
333
336
337
341
335
351
348
349
347
349
247
661
360
332
326
327
335
346
364
385
401
398
364
333
319
321
326
324
324
329
333
335
340
340
338
351
344
346
348
353
257
660
388
336
333
336
340
351
369
386
404
407
375
342
322
326
326
328
331
327
335
337
335
337
339
347
345
351
346
345
314
647
350
331
333
334
340
354
374
393
405
403
361
331
320
321
324
317
325
331
336
338
334
347
343
343
348
347
251
661
373
334
326
331
336
351
365
390
401
401
365
331
317
323
321
323
325
328
331
338
333
346
342
345
345
347
262
660
428
330
326
330
336
346
360
382
396
399
373
332
324
321
322
326
330
329
333
339
340
344
337
344
348
347
351
350
284
620
488
333
326
328
333
341
355
379
394
400
377
340
323
324
324
327
327
325
331
333
340
342
336
348
348
347
350
350
270
650
446
333
328
331
335
346
359
381
397
400
375
336
322
322
326
324
325
328
333
332
337
338
336
345
342
344
349
349
266
661
350
331
330
332
338
352
369
390
403
400
362
331
324
324
326
328
330
331
336
337
337
339
334
351
343
348
347
350
251
661
359
330
328
331
338
350
366
391
398
400
368
332
325
325
327
329
332
330
336
338
343
346
346
341
354
352
350
351
353
258
661
375
334
331
336
342
342
365
387
404
406
374
334
326
321
324
325
323
328
330
336
336
340
336
348
344
348
347
350
273
656
406
341
332
335
342
351
370
389
407
413
386
349
329
330
326
330
330
334
336
337
340
336
349
348
345
349
349
316
516
485
342
335
339
342
350
364
384
401
408
398
357
338
326
330
323
320
332
329
333
336
346
338
342
341
342
272
646
354
329
330
330
335
352
370
389
405
398
370
338
329
323
328
327
329
340
336
347
337
346
340
344
271
638
413
333
325
329
333
346
363
381
395
397
368
337
319
324
322
323
325
327
338
340
336
338
340
338
255
660
352
326
327
326
333
349
363
384
399
386
351
328
320
322
321
321
333
336
346
339
336
336
336
334
342
641
338
317
320
327
338
352
369
390
399
387
346
326
323
324
325
338
348
351
338
336
335
339
336
311
653
334
328
328
331
339
354
373
394
403
390
350
329
326
327
325
335
349
351
342
330
342
336
341
250
659
358
324
322
331
336
351
367
391
399
397
366
334
323
322
324
326
338
348
350
343
340
339
343
325
416
578
337
330
328
332
340
357
379
394
401
387
352
322
324
324
325
334
352
354
340
336
338
338
339
275
659
341
324
328
331
336
351
369
389
398
393
354
331
325
327
329
332
342
349
358
345
343
339
343
340
262
660
350
327
330
328
339
353
371
388
398
395
365
331
328
325
327
327
330
338
351
345
338
341
347
348
251
658
365
326
328
330
337
348
368
384
400
393
366
335
326
323
323
326
332
338
348
345
340
339
342
342
255
660
351
324
324
328
334
344
368
383
395
390
356
328
318
326
323
324
330
340
351
339
337
336
335
338
244
660
381
322
322
323
329
341
361
380
396
391
363
329
319
322
322
328
328
330
337
336
351
342
342
350
347
329
436
590
335
331
331
338
343
355
374
395
399
391
349
329
328
327
331
329
333
334
336
351
353
344
343
343
345
301
530
481
330
327
333
335
345
359
381
397
403
380
345
328
320
321
324
323
323
330
334
346
343
340
340
338
343
247
658
358
326
320
325
334
346
364
383
396
392
363
328
321
319
320
321
323
329
339
345
345
341
336
339
341
262
633
423
331
322
326
333
343
359
382
393
396
371
337
324
327
329
331
331
337
346
355
360
342
349
346
348
295
559
478
338
328
327
338
343
359
386
397
405
387
345
325
325
328
324
330
335
341
353
347
337
342
338
338
252
659
357
327
326
333
336
350
371
389
402
394
359
332
322
324
330
327
332
347
352
349
339
340
341
341
245
661
376
328
325
333
336
348
365
384
396
397
364
336
326
326
329
330
335
341
352
354
345
342
343
345
305
516
518
335
339
324
330
346
360
380
396
402
379
343
324
325
324
325
329
337
350
339
333
331
338
339
247
658
357
325
322
327
338
348
367
391
397
396
362
327
322
318
321
323
335
345
345
340
334
335
333
261
641
404
326
324
324
329
343
361
384
394
394
363
335
318
323
324
328
348
353
335
334
337
336
329
366
633
331
321
322
328
336
351
373
388
396
373
339
323
323
326
326
331
341
352
348
342
339
341
342
255
659
413
327
323
326
334
342
358
381
394
393
364
332
320
326
323
326
328
333
341
353
349
338
339
345
343
250
660
348
331
323
326
338
346
364
386
395
392
358
329
321
320
320
325
327
332
339
349
339
346
337
340
301
510
490
331
322
324
331
346
359
381
395
397
379
343
326
322
323
326
328
333
346
351
345
342
340
342
318
455
563
331
327
326
335
342
354
378
398
399
379
342
328
326
323
326
333
332
348
355
347
340
345
341
342
278
659
342
324
324
326
337
354
367
386
398
389
353
330
327
327
326
331
331
342
360
358
339
340
339
340
247
661
349
326
323
330
336
347
366
385
394
392
360
327
320
323
321
324
326
325
334
344
359
346
336
338
338
317
426
552
331
320
324
326
336
357
373
392
399
388
348
323
322
319
323
325
333
332
336
346
354
347
343
345
345
314
475
533
333
326
329
335
344
359
377
396
402
384
348
329
324
327
324
328
331
340
353
354
338
340
336
337
253
650
404
325
319
324
333
341
360
381
394
396
369
336
322
323
323
326
326
333
332
336
351
359
348
338
342
339
317
456
551
331
322
324
335
339
354
377
392
397
385
345
329
323
324
324
331
333
335
338
349
362
353
344
341
343
336
354
635
337
323
329
334
343
356
378
397
401
392
355
330
328
328
328
331
331
335
352
358
346
340
337
339
325
378
586
332
323
323
326
340
349
376
388
398
382
350
324
324
320
322
328
327
351
361
345
335
340
341
332
277
656
341
320
325
332
337
351
371
388
398
388
355
332
323
325
326
333
330
350
361
354
339
337
340
335
240
660
362
327
322
327
334
343
366
389
394
392
359
332
323
327
328
333
330
336
339
357
358
343
345
342
339
276
606
461
329
323
323
332
343
357
378
389
393
374
338
320
319
318
321
326
323
344
353
340
332
336
336
334
297
643
337
323
324
327
340
352
372
390
399
395
361
331
325
327
324
331
338
351
359
349
336
344
342
336
314
658
337
324
326
331
339
351
370
392
397
387
355
331
329
326
328
334
339
358
362
347
343
342
343
320
440
568
335
327
325
336
344
355
378
394
398
383
347
329
326
332
331
332
340
354
359
342
339
339
339
313
447
535
331
326
325
331
342
350
374
394
395
384
343
325
321
322
317
320
333
344
344
334
333
337
330
256
647
377
324
318
320
329
339
360
376
392
388
360
330
322
322
317
327
335
348
346
334
339
338
343
258
653
397
326
323
330
337
347
361
382
396
392
368
338
328
329
331
328
346
350
346
339
339
341
339
246
659
369
324
322
331
334
348
364
387
397
392
360
331
325
324
327
333
339
342
348
345
344
344
344
249
660
383
328
328
335
336
349
370
387
398
395
364
334
326
328
329
331
335
337
344
348
343
343
346
344
255
660
354
329
326
329
334
348
363
384
392
386
353
322
318
316
321
320
326
329
329
340
333
333
338
335
258
630
393
324
318
320
329
339
352
379
391
394
364
334
319
322
320
323
326
337
344
352
343
342
344
346
266
629
425
336
324
329
335
345
366
381
398
396
370
336
326
324
324
327
332
336
339
349
356
350
349
350
351
319
475
564
336
328
334
332
341
360
375
393
400
381
346
331
327
328
332
332
335
345
353
358
348
347
347
348
275
618
444
332
327
334
339
345
364
383
394
403
374
336
324
325
322
327
328
330
343
350
349
339
340
339
337
253
656
350
326
325
329
336
350
371
383
399
396
360
328
321
327
321
324
326
338
344
347
342
340
337
338
249
657
383
328
325
324
335
345
365
383
395
391
366
333
323
322
325
330
335
350
353
342
338
335
336
313
467
539
327
325
326
332
343
354
377
392
396
376
344
325
319
324
323
326
343
349
352
337
338
335
341
245
658
382
326
326
325
334
347
363
383
398
392
363
332
324
323
323
331
326
335
351
352
340
341
342
341
307
483
527
332
326
327
332
345
360
380
393
395
382
344
333
323
329
327
331
335
342
352
341
340
345
340
327
417
558
337
329
329
333
342
357
376
393
398
381
345
327
322
326
325
329
342
354
345
338
335
340
340
247
660
357
327
320
328
337
346
363
384
392
387
353
325
319
320
324
325
337
346
352
338
331
336
336
285
542
473
326
318
323
327
339
354
377
389
391
367
336
322
320
322
324
330
340
349
345
334
336
337
336
274
658
339
320
323
327
335
350
370
390
400
385
351
330
324
327
329
327
337
343
350
347
342
344
345
313
468
530
330
328
331
337
342
361
380
396
403
383
345
329
327
329
330
341
348
352
341
339
341
345
254
659
362
331
329
332
339
350
372
387
394
390
357
333
326
328
324
340
350
343
337
338
339
341
250
660
383
330
322
322
333
344
361
382
394
389
355
327
320
319
323
329
338
348
338
333
338
337
288
559
469
327
321
323
333
337
355
379
391
389
362
329
323
323
318
329
332
340
348
339
339
341
339
242
661
368
328
323
328
333
342
364
382
391
389
354
329
321
325
325
328
335
342
341
338
340
340
338
313
653
333
322
319
326
330
349
367
385
390
379
345
319
320
322
323
322
334
342
341
335
337
337
338
276
652
340
327
326
331
331
351
369
386
396
386
350
328
326
321
326
327
341
347
351
339
337
338
341
250
659
356
322
321
330
334
349
372
387
396
389
355
325
325
326
324
341
346
342
332
331
332
335
275
658
337
318
319
322
330
346
367
385
391
379
343
327
322
322
323
334
351
352
345
339
335
341
268
622
430
328
325
328
335
345
364
387
394
398
369
335
330
330
333
330
343
353
360
345
345
346
344
278
612
445
333
323
330
335
345
364
380
398
394
370
335
326
325
327
325
339
349
349
335
338
333
340
248
658
361
324
318
327
329
343
367
384
390
392
356
327
323
322
324
334
347
354
340
335
333
333
271
594
436
322
315
318
327
332
349
372
384
380
353
325
313
312
313
327
340
336
322
324
327
324
233
659
338
308
308
319
326
338
360
376
385
375
341
322
316
319
324
332
342
344
337
337
337
335
238
660
360
327
327
325
333
349
367
382
395
389
354
331
330
329
332
339
346
352
340
341
345
347
250
660
377
334
328
336
337
352
367
389
399
398
360
337
329
329
336
347
352
342
338
342
339
317
461
537
333
331
325
336
343
361
381
394
398
372
337
328
323
326
344
348
347
332
332
331
333
290
652
330
315
318
317
326
342
356
373
379
366
329
314
313
311
317
334
336
332
326
333
324
313
404
569
319
314
314
317
329
348
365
381
385
366
335
320
324
321
327
330
344
354
344
340
342
340
268
639
422
331
329
330
337
347
367
387
398
398
372
339
335
336
336
339
348
367
359
346
347
348
344
284
659
343
328
328
336
342
357
376
390
400
388
357
330
331
332
333
334
338
353
364
354
348
347
348
312
490
516
338
325
332
336
345
361
387
396
403
383
352
336
334
325
333
342
363
360
341
334
334
334
246
658
342
317
310
317
326
337
358
372
376
368
337
314
308
308
309
313
334
339
321
319
317
317
245
608
391
309
302
308
312
327
342
363
376
374
347
322
313
310
319
319
325
332
355
354
335
334
339
337
242
659
352
324
322
327
338
350
369
392
395
394
361
335
332
333
330
336
343
360
365
353
340
343
345
274
617
431
334
326
331
338
348
369
383
398
397
375
342
334
330
334
335
337
359
368
354
341
343
342
326
410
597
333
323
330
330
341
359
375
389
396
374
346
328
324
325
328
334
352
361
349
337
338
335
314
438
571
321
313
314
