324
337
348
332
323
322
321
322
253
650
324
305
306
307
311
319
334
351
361
360
333
297
281
279
277
278
276
276
282
298
286
269
269
268
267
209
507
324
257
254
259
268
278
293
314
328
336
325
296
276
276
279
285
290
295
302
319
330
315
314
314
320
320
309
592
331
323
327
333
343
356
377
395
407
411
385
353
344
345
348
353
358
361
373
385
368
362
362
363
363
302
657
372
355
357
360
367
378
395
411
420
422
398
366
353
352
352
355
356
355
371
380
362
352
352
348
350
274
657
364
342
338
345
350
359
375
391
400
403
382
348
338
336
338
336
337
345
358
356
337
333
332
332
307
456
464
324
317
320
326
334
342
364
379
386
379
348
321
311
313
313
317
331
345
329
313
315
320
317
246
612
346
307
307
312
318
329
340
361
369
371
354
320
302
299
300
301
312
326
322
295
289
287
287
274
395
460
288
282
287
296
306
319
341
355
364
355
321
301
294
297
300
309
330
333
312
302
304
304
306
272
624
311
297
302
307
315
327
345
360
367
365
332
304
297
296
302
302
319
336
324
308
308
311
311
257
572
383
309
307
313
321
331
347
370
385
392
377
343
327
326
328
333
336
338
351
365
346
339
337
339
340
305
639
340
333
336
341
351
362
380
398
404
406
379
352
340
343
347
346
349
356
373
370
350
346
353
348
318
517
461
342
334
338
343
351
364
383
395
400
390
357
331
322
319
318
317
323
338
338
315
305
299
299
296
258
609
300
287
285
293
299
311
326
344
353
352
322
292
281
280
284
287
299
322
316
294
292
293
295
259
492
418
298
294
300
308
323
338
360
375
381
371
334
311
312
311
315
316
323
344
342
320
314
312
313
292
454
467
312
309
316
326
337
353
375
392
402
395
359
337
334
334
340
344
347
352
368
365
351
346
350
351
284
630
406
339
338
344
347
356
369
388
401
405
388
353
334
330
330
329
331
333
337
348
353
340
334
335
333
323
369
560
327
316
316
320
327
338
355
369
379
373
342
313
305
303
300
301
300
305
317
322
307
300
298
297
293
293
548
292
283
286
291
297
309
327
344
352
351
323
294
288
289
295
298
302
308
321
327
314
311
310
313
310
333
549
318
312
314
323
330
344
361
379
386
384
359
330
322
322
324
329
331
344
358
354
339
336
338
337
275
603
382
335
332
338
346
357
372
391
406
410
394
359
346
340
341
344
346
355
369
372
351
345
344
345
320
477
465
338
333
336
340
350
361
377
393
398
387
354
328
324
321
323
322
331
345
341
319
315
315
312
271
515
379
305
302
305
309
319
328
348
358
367
348
315
294
288
286
289
302
320
321
299
295
291
294
286
352
491
295
291
294
303
312
327
342
362
369
367
340
315
313
314
315
327
349
354
337
332
331
332
330
358
608
332
321
325
331
340
353
370
386
396
388
360
331
329
325
331
337
364
362
342
330
332
332
319
392
587
325
321
323
330
339
354
374
389
397
385
356
332
326
324
328
330
346
358
338
325
322
320
323
240
657
325
307
306
310
318
330
344
363
372
372
345
313
304
304
305
306
307
314
332
330
313
310
309
308
275
477
428
297
291
294
303
309
323
341
357
362
353
322
299
296
297
298
300
300
304
314
332
320
309
310
312
314
241
648
327
310
313
320
325
336
353
374
388
388
364
334
320
320
323
326
330
333
334
340
351
366
347
342
344
343
334
403
542
343
337
340
345
355
371
387
406
412
410
382
352
348
347
348
353
352
355
361
365
382
375
357
357
361
356
288
655
365
349
346
351
358
373
387
405
412
413
390
357
342
339
342
343
348
346
348
368
363
339
332
332
327
269
584
396
315
309
312
316
325
339
358
369
376
360
324
303
299
300
300
303
308
315
328
335
315
311
310
315
299
396
513
310
300
306
310
322
332
351
368
379
370
340
315
310
310
314
318
321
322
324
328
348
344
329
329
327
329
254
630
371
322
318
323
329
340
356
374
386
393
378
343
325
321
324
326
326
328
326
330
329
335
349
354
335
331
331
331
280
549
407
323
318
322
327
336
349
367
382
388
381
349
324
318
317
318
321
322
324
325
327
329
333
352
351
337
333
333
333
259
632
362
324
324
330
336
345
358
377
392
400
385
352
330
328
327
334
332
337
336
336
339
341
365
355
340
338
340
340
269
649
354
331
334
340
345
358
376
392
402
406
384
351
334
327
328
328
329
328
327
333
349
349
324
320
315
315
274
489
414
298
289
289
294
299
309
327
339
345
337
301
274
273
273
274
278
280
285
287
301
315
297
293
294
295
294
264
607
305
293
292
303
311
322
347
366
376
377
355
319
312
316
320
323
325
325
329
334
352
352
332
332
333
336
272
626
380
333
332
337
344
357
369
392
405
413
400
361
347
337
341
343
344
346
347
356
369
358
338
335
336
332
244
659
359
320
313
320
325
338
355
373
385
388
364
326
310
307
309
309
311
311
315
330
333
311
305
302
303
292
339
551
297
286
287
294
304
315
335
354
362
359
326
301
296
297
300
303
306
310
312
315
324
345
333
323
323
327
329
245
658
340
319
317
323
331
344
360
380
393
397
376
342
330
329
330
334
334
338
340
340
345
358
368
350
344
343
345
334
413
548
338
329
330
335
341
354
373
391
401
397
366
336
328
330
328
333
336
339
338
340
351
365
347
337
338
339
339
286
642
344
329
330
336
339
351
366
384
399
399
375
340
326
323
323
326
326
329
331
338
355
343
333
330
330
328
251
632
353
318
315
318
325
336
353
372
383
386
365
330
312
311
312
313
315
317
322
338
340
323
318
319
319
306
387
495
318
313
314
321
328
339
359
378
386
380
350
321
316
318
319
320
323
325
342
349
332
326
326
326
323
312
581
326
317
318
323
330
341
358
373
382
378
348
317
302
303
302
300
302
311
326
319
300
294
294
296
244
528
351
291
284
291
297
310
320
340
359
366
351
319
295
300
299
306
313
331
346
330
316
323
325
325
251
652
351
331
336
338
350
365
382
401
412
417
401
366
351
350
352
355
370
390
384
361
357
359
353
328
497
528
348
338
342
346
353
366
387
398
401
392
354
328
321
319
323
329
351
346
321
309
306
306
295
328
563
293
279
277
279
288
304
320
335
343
338
304
276
270
271
275
279
296
310
294
282
282
286
286
207
618
325
284
284
289
298
312
330
352
367
374
354
320
310
310
314
320
324
330
348
358
345
340
342
343
343
331
631
345
339
339
346
353
364
383
403
411
410
378
348
341
339
340
344
345
346
348
350
364
376
354
348
348
348
316
498
467
337
330
333
337
344
355
372
385
396
388
355
329
324
322
325
328
329
331
329
339
358
344
335
336
336
333
265
644
346
329
327
334
344
354
369
389
401
403
385
347
334
328
331
337
336
344
348
361
369
347
343
343
339
331
416
531
344
338
340
347
359
368
389
403
411
403
372
339
332
331
331
334
336
340
363
360
332
330
328
324
286
515
436
318
309
313
320
327
341
357
375
384
368
334
310
304
304
307
307
310
323
340
329
314
311
311
309
231
628
340
298
297
299
305
317
330
349
364
369
352
317
300
304
307
311
314
315
317
325
347
339
323
325
324
323
242
650
350
316
315
321
327
336
351
372
386
392
374
338
324
322
324
324
327
329
331
331
334
345
361
343
338
337
338
332
347
587
336
325
326
333
340
351
368
388
400
394
366
333
321
318
320
320
320
322
321
322
322
341
336
315
310
310
307
231
592
336
291
287
292
295
308
318
335
347
349
339
300
281
276
277
280
285
290
292
292
308
323
299
290
290
290
292
261
597
299
287
290
298
306
321
339
356
370
371
347
316
308
308
313
316
320
326
327
330
345
362
344
337
338
338
340
290
655
342
332
335
341
348
358
374
395
409
411
384
354
344
342
345
348
351
353
355
355
356
357
367
385
368
360
358
358
355
342
642
354
342
344
348
354
365
381
399
410
410
384
351
337
334
337
339
341
341
340
342
344
357
365
345
339
337
339
323
422
513
333
326
330
333
339
349
367
383
395
391
360
333
324
325
325
327
328
330
329
328
335
355
347
333
329
330
328
256
616
359
316
313
314
320
327
337
353
366
373
358
321
298
293
291
291
292
291
291
290
288
297
314
299
286
286
286
286
208
601
300
276
283
284
294
305
321
338
355
364
346
311
298
297
298
305
307
311
316
330
345
343
331
329
334
336
273
609
382
338
336
341
350
360
379
396
413
420
408
375
359
351
353
358
358
364
370
375
397
386
370
365
366
367
298
643
435
360
350
351
359
368
380
396
404
409
391
355
329
323
320
323
320
321
325
344
338
319
313
313
310
301
377
532
310
302
305
314
324
334
352
372
385
382
352
325
321
324
327
331
331
337
338
364
367
345
348
348
347
336
420
550
351
346
351
356
361
375
393
411
422
422
386
362
348
350
351
353
352
353
370
382
359
344
340
340
335
251
659
339
316
317
319
331
346
357
375
385
388
363
329
313
310
310
313
319
331
344
321
307
305
299
297
209
651
327
279
274
276
281
291
304
320
335
339
317
279
265
264
266
266
272
277
294
302
283
277
276
278
277
233
620
280
268
272
281
291
307
326
346
360
362
334
305
297
301
304
307
310
316
322
334
353
338
329
333
329
332
296
644
334
325
325
332
341
351
368
386
401
398
368
333
322
317
316
317
321
321
318
320
339
341
320
315
315
316
269
546
394
309
302
307
315
324
341
361
378
385
378
338
317
312
312
315
317
322
328
345
349
327
322
319
322
316
334
613
319
308
312
318
330
342
364
382
391
388
359
327
323
322
324
330
331
335
345
365
353
342
338
339
339
262
655
395
332
331
339
345
354
370
392
408
412
394
358
336
337
339
341
343
345
347
349
350
353
369
379
358
351
350
350
332
444
561
342
336
336
341
348
361
380
398
408
403
373
338
330
332
334
334
336
335
337
339
340
339
340
358
362
343
338
340
339
287
571
418
329
323
323
331
338
352
370
388
397
386
351
326
319
320
322
326
328
329
328
329
334
336
343
362
350
340
337
336
338
258
655
347
323
324
328
335
345
360
381
395
398
380
343
324
322
323
325
328
332
333
336
331
330
335
351
361
341
334
335
335
304
478
454
327
320
325
330
337
349
367
386
393
390
360
327
318
317
320
322
323
327
328
327
330
329
340
359
341
335
333
332
330
300
611
334
322
321
329
334
345
362
380
392
393
371
337
319
320
324
325
328
327
333
334
340
354
365
349
343
344
348
337
378
554
344
339
339
347
358
367
385
402
409
409
385
350
339
338
338
343
348
350
353
374
378
357
348
346
344
343
299
651
344
331
332
338
346
355
370
390
398
399
371
332
316
317
314
319
321
330
347
353
330
316
315
309
309
236
654
313
295
297
303
312
323
340
362
371
372
350
311
298
297
298
300
303
309
330
328
309
298
297
296
296
281
594
297
281
286
293
303
312
331
348
361
359
331
301
296
299
301
304
306
309
318
336
326
313
311
311
310
259
540
379
301
295
299
306
315
328
345
360
368
359
323
303
302
300
304
308
307
309
314
329
336
318
313
312
312
306
321
560
310
303
307
314
321
334
350
368
378
379
354
323
313
314
316
319
318
318
320
328
348
341
330
326
327
323
271
558
382
318
315
323
330
339
353
369
381
390
384
354
331
327
331
333
334
336
337
344
358
363
346
340
343
343
333
407
520
346
340
343
352
359
371
391
404
415
416
387
361
346
348
349
348
351
352
357
369
378
355
351
350
347
345
322
614
343
331
331
339
343
353
370
385
391
396
370
336
321
319
315
317
317
318
320
337
330
307
298
296
297
270
424
445
285
277
279
286
293
306
328
340
353
348
317
292
283
285
288
294
296
306
328
324
306
303
303
307
296
368
537
307
298
300
305
318
333
350
370
379
376
348
322
313
314
314
320
319
323
337
354
335
327
324
327
327
248
645
364
317
317
322
330
338
354
373
387
393
383
347
325
326
330
328
332
336
351
367
346
338
339
341
341
262
653
368
331
329
333
340
351
366
386
401
403
386
352
335
332
332
332
334
340
354
352
332
326
325
320
313
328
556
306
297
295
299
302
309
320
336
344
339
306
276
266
269
267
266
269
277
294
284
270
269
271
272
233
471
359
275
274
281
288
300
314
335
352
367
361
331
310
309
314
321
325
330
343
361
348
340
341
343
348
293
598
409
345
346
353
358
370
384
404
416
427
417
384
364
360
365
366
367
366
372
387
391
374
371
369
371
366
353
633
369
359
363
365
371
385
402
419
428
424
403
372
355
354
355
356
358
362
383
383
360
351
348
347
349
270
658
351
332
329
333
339
349
362
379
390
392
371
336
317
315
315
318
321
328
346
339
316
312
309
308
304
324
573
305
295
296
304
311
323
338
355
367
363
333
303
296
296
295
300
301
302
311
329
322
308
305
305
304
272
473
431
301
297
299
305
316
327
347
363
374
370
338
312
308
311
313
317
318
322
323
332
352
340
329
327
326
330
259
618
373
322
319
324
329
337
349
367
382
387
377
345
321
319
320
320
324
323
321
320
327
346
344
325
320
322
321
294
459
448
315
309
312
318
330
338
358
374
386
377
356
327
320
322
327
330
332
333
334
347
369
360
343
342
346
344
283
625
397
345
343
348
356
371
381
403
412
422
413
380
356
350
348
352
355
356
355
360
382
382
355
347
347
344
331
393
575
337
326
326
333
339
353
370
385
396
393
364
334
320
319
319
326
323
323
333
348
338
322
321
321
322
275
543
421
314
309
311
318
329
341
359
375
379
375
340
321
315
321
319
326
325
325
326
334
356
350
332
328
329
327
281
543
431
319
312
315
323
329
343
357
374
382
377
344
318
310
313
314
318
319
323
322
327
344
350
333
327
327
328
326
308
620
333
319
322
326
332
343
359
377
387
388
364
327
313
312
313
315
315
313
314
315
315
322
336
317
308
303
306
304
231
622
304
285
287
287
293
306
319
336
347
353
331
298
280
278
282
284
285
290
292
292
298
314
320
304
299
301
302
301
312
549
311
302
304
308
318
332
348
367
377
380
356
325
313
312
316
320
323
326
327
332
353
357
340
334
335
337
334
331
619
333
327
331
336
345
355
372
394
406
406
379
346
334
336
337
340
344
342
348
360
370
349
340
337
340
338
265
655
338
324
327
332
341
351
362
379
395
395
383
343
323
324
325
329
329
334
336
348
365
354
339
338
342
342
284
606
386
334
332
333
337
344
356
372
383
384
376
337
310
302
302
302
303
302
301
307
326
318
297
292
293
290
255
471
395
281
275
281
287
297
307
325
342
351
346
315
289
285
286
288
293
294
297
314
329
316
307
305
305
307
245
589
355
307
307
310
318
328
343
361
376
388
379
345
323
323
325
324
330
335
336
342
358
365
345
342
342
345
348
302
645
351
341
341
347
355
366
385
401
415
418
397
365
348
348
350
350
352
353
352
360
382
371
357
352
350
350
319
503
463
344
335
338
342
349
359
374
386
393
385
355
322
314
313
314
311
313
309
314
329
330
309
304
301
301
295
329
529
298
291
293
301
310
322
338
353
363
362
337
305
294
296
297
300
302
303
309
326
318
303
299
301
300
268
467
385
297
292
296
303
311
324
343
354
365
360
329
308
295
301
305
309
311
314
329
344
329
321
324
325
326
262
616
362
329
326
334
344
357
370
389
403
411
401
366
343
343
339
343
349
348
355
373
374
350
346
345
343
335
366
582
340
334
334
343
348
359
375
393
403
398
368
343
328
329
330
333
335
339
348
359
342
327
325
321
322
251
601
358
307
301
305
307
317
328
345
358
363
350
316
294
288
289
290
293
293
296
311
323
304
297
300
299
303
224
623
322
295
292
297
304
317
334
354
369
376
362
328
311
308
312
317
320
323
325
335
346
356
341
335
336
336
335
292
637
342
331
334
341
349
361
373
391
407
405
387
350
337
332
336
340
337
342
340
351
370
363
345
342
343
345
308
533
447
338
336
336
344
354
371
387
397
408
399
367
343
330
333
336
338
339
339
360
369
352
339
341
341
339
254
657
368
329
326
333
338
351
366
383
397
402
388
353
336
332
334
333
337
336
346
365
361
340
335
336
337
324
384
597
328
325
322
329
340
347
364
381
390
383
355
321
314
311
311
313
311
313
316
337
330
311
304
303
300
283
377
513
294
284
286
293
300
307
323
340
345
345
317
289
283
281
283
284
289
291
297
309
319
304
298
297
299
300
212
653
321
295
300
304
316
326
347
363
378
385
370
335
319
314
316
315
317
314
317
319
329
350
337
325
322
321
324
245
641
362
317
314
319
326
334
343
360
373
380
371
341
321
316
320
320
323
322
323
327
342
357
335
333
332
331
334
268
651
343
330
333
339
346
355
376
394
405
413
389
356
334
327
328
334
329
346
341
355
374
363
347
340
340
344
286
590
409
342
339
342
347
349
360
373
388
392
387
353
325
321
321
322
321
323
321
337
342
320
316
310
309
308
244
622
312
298
298
303
312
324
338
354
367
368
350
315
295
295
298
302
298
298
305
325
325
305
304
304
306
288
410
458
305
298
301
310
320
330
351
364
376
375
343
314
309
308
309
313
318
319
329
347
347
331
329
331
332
309
454
476
332
328
331
336
344
356
371
390
396
396
365
336
327
328
329
329
331
334
337
351
349
328
324
324
324
305
428
474
320
311
317
319
328
343
357
379
388
383
354
325
316
321
321
320
325
327
337
355
359
340
337
337
336
328
388
552
337
331
341
343
352
368
385
402
409
410
379
346
334
333
336
337
342
339
346
365
365
349
342
340
342
337
289
652
342
328
329
334
342
353
370
388
400
403
378
341
327
326
330
332
333
335
336
344
359
357
339
338
337
338
317
446
508
333
327
330
336
344
356
373
392
400
398
362
332
323
325
323
326
324
324
324
327
329
344
346
326
321
319
318
307
347
536
311
302
298
307
312
319
339
359
365
367
339
304
285
290
289
293
289
294
294
298
313
326
307
301
300
298
300
227
624
317
296
297
304
312
327
343
365
378
384
366
332
314
311
314
317
320
324
325
330
344
361
347
337
339
340
341
265
656
371
340
339
347
354
364
379
399
413
420
406
369
348
344
345
347
349
351
351
354
367
382
365
356
353
358
352
278
654
378
339
340
341
345
354
367
382
398
396
385
349
315
313
307
310
310
308
309
309
308
331
333
312
306
307
307
301
329
531
306
297
298
304
309
319
337
354
363
366
342
310
297
295
299
306
307
310
309
315
335
337
320
318
321
325
317
361
547
327
325
325
335
345
360
378
396
409
408
382
350
336
337
345
348
348
349
353
365
380
373
359
354
357
357
313
556
441
351
350
354
358
371
384
404
418
424
418
387
355
348
347
344
347
348
349
352
369
365
342
338
335
335
311
443
506
325
318
321
325
334
348
366
382
392
388
355
324
318
314
318
319
324
324
338
352
343
328
324
324
323
288
498
439
318
313
317
322
329
340
356
371
381
369
334
303
294
290
291
288
290
286
281
284
296
296
278
271
269
265
257
262
515
255
242
244
251
259
268
285
304
315
317
294
262
249
252
256
260
266
269
273
278
289
310
304
301
300
304
309
247
603
360
319
324
331
340
354
374
395
415
424
422
384
361
359
358
368
369
373
376
387
403
408
385
383
385
383
375
408
644
382
374
375
380
389
401
421
433
446
444
415
380
364
360
364
363
365
365
372
389
383
360
356
359
356
340
433
591
343
338
341
344
351
362
379
393
402
398
366
328
317
314
313
311
314
312
316
332
334
308
302
299
299
294
252
612
295
276
278
283
291
301
318
338
351
356
332
300
287
287
288
292
294
295
297
300
308
328
330
313
310
307
310
300
379
516
315
309
313
321
329
344
356
379
394
396
370
339
330
330
335
339
341
346
350
348
353
370
370
354
346
347
348
339
400
561
346
340
344
345
356
366
382
400
413
414
386
356
339
339
342
340
342
344
347
345
352
370
369
350
345
343
344
327
440
500
340
334
332
338
347
361
370
389
398
398
367
334
320
315
316
317
316
315
317
331
346
327
312
309
313
311
234
617
340
301
296
300
308
319
333
347
361
368
357
320
290
287
284
286
286
288
294
315
319
299
287
288
287
288
196
648
303
281
279
284
292
306
323
342
359
366
347
314
294
296
297
299
304
305
313
331
342
323
321
321
322
323
245
657
334
316
316
321
330
342
362
381
394
401
379
346
331
329
332
332
332
336
339
352
362
345
333
331
333
334
245
658
352
316
315
318
323
333
346
363
375
381
365
330
305
304
304
304
305
305
305
314
330
322
309
305
308
309
283
435
446
303
298
301
307
318
331
351
369
382
383
352
324
318
317
320
324
327
328
331
344
362
352
340
339
343
346
288
604
403
345
343
347
353
362
374
393
407
415
408
370
346
338
336
336
338
337
335
343
359
350
333
328
327
326
295
471
435
316
310
314
318
328
338
356
371
380
376
348
316
308
307
312
310
315
315
320
338
343
325
320
323
326
320
310
590
331
321
324
333
342
352
369
392
404
407
387
351
335
334
338
339
341
344
348
362
371
350
345
342
345
348
269
654
353
335
333
337
345
353
369
387
396
400
385
346
321
315
315
318
318
318
322
337
344
325
318
315
312
319
235
642
333
306
306
311
320
332
348
366
379
386
370
336
316
314
316
320
323
324
328
342
355
338
330
331
333
333
255
649
361
329
326
330
336
346
362
380
394
403
391
355
335
329
330
330
333
335
333
341
361
355
336
335
332
335
326
386
529
332
322
330
332
342
356
369
385
395
398
365
331
320
313
313
318
315
321
320
335
344
324
312
313
312
308
237
640
329
305
306
311
318
329
342
360
370
376
360
324
303
300
302
303
306
309
316
336
337
314
310
309
310
308
274
632
321
312
312
319
329
343
360
380
395
398
375
340
331
328
328
331
333
334
341
359
360
342
333
331
332
329
297
627
325
314
314
316
323
333
347
367
379
382
355
321
304
302
302
306
306
306
308
321
335
324
311
313
311
313
252
578
369
312
311
317
324
334
350
370
385
394
388
357
331
327
329
331
338
339
342
354
370
360
347
345
345
346
291
596
417
344
340
344
352
360
376
394
409
419
410
376
350
345
345
346
351
351
357
378
372
354
350
352
350
338
405
560
343
341
344
348
358
367
386
403
415
411
381
344
333
337
339
340
348
365
368
349
338
338
337
341
258
655
359
330
327
335
343
355
373
387
401
407
389
353
334
333
333
332
338
358
364
343
330
323
322
319
257
588
380
304
301
303
310
319
336
352
369
373
362
328
304
302
302
304
305
317
339
335
313
306
308
306
305
302
596
308
297
302
308
315
328
345
361
372
375
348
313
303
304
307
312
311
316
331
345
332
323
322
322
324
268
586
391
325
323
328
334
343
358
376
391
400
389
357
332
329
328
331
335
335
337
340
351
366
352
342
340
339
342
261
657
359
335
335
339
345
355
372
392
405
411
395
360
336
330
332
335
337
337
341
342
342
350
368
359
344
340
341
342
273
632
379
336
334
336
342
351
363
382
395
401
394
357
328
324
320
323
327
324
324
333
345
346
322
319
317
317
310
357
513
316
307
308
316
320
334
350
368
379
380
353
320
304
301
299
303
306
305
312
327
335
306
300
298
299
290
311
550
294
279
280
283
294
309
323
336
348
348
321
287
271
271
275
276
278
281
299
311
292
285
283
289
285
206
616
315
281
281
288
296
309
327
349
360
370
359
322
302
298
300
303
307
312
311
328
343
336
324
327
329
330
279
569
409
334
332
333
340
351
369
384
402
413
406
374
348
342
344
344
349
347
350
356
371
370
354
350
349
347
334
402
542
339
331
333
340
349
362
379
395
404
404
375
344
333
334
340
340
340
345
348
363
374
351
348
350
350
352
294
650
360
346
351
356
364
373
394
410
425
432
415
378
356
355
357
358
359
363
370
387
384
360
352
351
349
339
335
621
339
329
326
335
337
352
363
379
387
383
357
321
303
296
295
299
295
299
320
320
295
284
286
282
280
210
624
286
267
266
273
284
293
312
332
345
347
325
290
276
277
281
285
289
293
313
325
307
297
299
303
305
229
625
353
305
305
308
321
331
349
370
388
394
384
348
326
328
328
332
337
340
341
347
369
367
350
347
347
348
339
404
576
348
343
345
350
358
371
389
407
420
421
390
358
349
349
352
352
354
356
356
357
362
380
375
362
360
358
362
313
573
449
353
348
354
358
371
380
399
416
423
423
385
359
349
347
352
351
352
353
354
365
383
363
356
352
351
356
279
656
382
344
342
346
353
363
377
393
406
411
398
359
337
327
327
328
326
329
327
343
350
331
316
315
313
313
224
645
337
299
296
298
307
315
329
348
363
369
354
315
296
295
295
299
302
304
307
314
333
331
315
313
312
312
301
395
514
315
309
312
321
328
343
362
382
394
392
363
332
325
325
326
331
332
333
334
345
365
353
339
339
339
341
294
547
434
336
329
337
340
349
362
382
399
410
401
367
336
331
331
330
332
334
337
343
358
362
344
339
340
340
336
321
611
338
330
331
334
344
354
370
387
400
400
372
339
323
323
323
326
325
327
330
344
356
339
330
329
330
331
255
637
354
323
321
323
330
340
356
376
390
397
382
345
324
318
319
324
327
327
329
331
338
354
347
334
333
335
334
288
543
411
329
325
331
337
347
359
378
395
404
398
363
336
325
328
328
330
329
329
328
333
350
344
326
322
321
318
294
435
442
306
297
298
301
304
314
327
341
348
342
309
275
261
259
257
257
255
255
257
268
278
259
252
249
250
250
174
543
280
246
246
254
263
275
293
314
332
341
332
300
282
281
287
289
297
303
311
324
345
335
334
332
337
341
296
573
418
356
354
363
371
387
404
424
443
452
450
417
386
384
381
386
392
388
394
411
419
400
389
385
381
383
312
659
426
372
369
373
383
390
410
419
440
453
441
413
386
383
382
382
383
389
404
412
393
376
369
371
370
311
617
473
353
344
349
352
367
382
403
419
421
411
374
342
335
335
332
340
344
367
370
346
337
334
330
333
242
660
348
317
313
318
327
338
351
374
385
390
373
328
310
300
306
309
307
316
343
337
313
304
302
302
304
224
657
306
288
287
293
301
316
331
350
365
369
343
305
290
292
292
293
294
297
304
323
324
306
299
300
304
300
264
633
301
290
290
297
304
318
334
349
361
363
337
299
283
284
284
286
287
285
284
283
288
309
298
281
279
277
277
220
520
348
271
265
270
276
287
301
321
338
346
341
309
285
281
283
286
289
291
294
298
301
309
328
327
313
312
317
320
304
413
496
323
316
324
332
340
354
376
392
406
406
379
347
337
341
345
348
353
353
356
359
364
374
391
376
367
370
372
370
295
659
394
365
368
373
378
396
406
428
443
447
439
396
377
369
370
374
376
380
383
380
397
410
393
381
377
374
375
299
661
400
365
360
363
369
378
393
408
420
423
407
370
345
337
338
338
345
345
345
363
371
352
339
336
333
331
250
654
367
316
312
315
320
331
344
362
378
385
369
328
307
302
304
305
308
313
315
335
341
321
313
314
316
315
228
657
334
309
308
315
324
334
348
370
385
390
373
336
318
317
321
324
324
327
327
333
352
353
334
329
329
327
322
307
610
322
312
312
315
322
332
348
366
377
375
347
310
293
290
291
292
293
291
289
289
294
311
294
281
277
277
278
215
530
330
269
264
266
274
283
295
314
330
338
331
299
272
267
272
273
280
283
287
291
291
304
321
315
304
305
307
311
266
522
396
315
314
320
328
340
355
373
391
404
404
372
343
334
339
339
343
345
349
350
352
364
384
371
359
361
362
360
306
606
423
362
358
363
369
379
392
410
423
429
422
385
353
342
342
341
341
340
340
337
340
356
353
332
327
324
321
307
364
531
311
303
303
306
314
325
339
358
366
366
337
302
290
289
291
293
295
297
297
303
322
325
307
305
307
305
307
265
616
317
306
308
314
322
336
350
371
385
391
371
335
322
323
324
327
331
333
335
338
350
368
357
349
347
351
350
301
575
426
352
347
355
361
373
383
402
420
434
430
398
368
361
362
361
362
365
365
372
375
391
403
381
378
378
374
378
336
653
380
370
373
377
384
397
411
429
440
446
421
390
365
362
362
365
365
367
372
391
392
367
362
359
360
355
280
659
353
341
337
340
349
354
370
386
393
398
370
332
307
306
301
301
301
305
326
324
301
288
286
284
285
189
651
304
273
266
272
278
289
305
328
342
346
329
288
269
264
265
269
271
275
297
301
283
275
275
279
278
191
633
313
272
273
283
290
304
323
344
361
369
356
319
299
302
303
308
312
315
322
339
351
334
330
330
333
334
250
660
366
336
330
341
348
359
376
395
413
419
403
367
347
345
349
351
352
354
353
355
365
379
359
350
345
342
344
260
657
357
328
319
320
322
329
340
357
365
369
351
311
286
276
276
274
273
274
271
272
271
278
292
280
270
270
272
271
206
547
319
270
266
272
279
293
308
330
348
362
357
327
300
300
303
308
313
317
321
327
331
343
364
350
345
346
350
351
289
627
401
353
351
357
364
375
390
412
428
437
430
395
368
364
364
368
368
371
372
371
379
396
394
377
376
375
375
360
446
556
368
364
364
369
376
389
403
421
429
429
398
365
350
351
350
353
354
352
354
365
379
367
356
352
352
352
298
581
408
343
338
336
342
348
357
373
384
391
382
343
314
304
302
299
301
301
308
320
314
298
293
290
294
280
370
447
288
285
291
294
306
318
337
354
367
367
341
312
302
306
310
314
322
346
353
331
327
332
329
336
261
657
361
342
344
351
363
375
385
409
424
425
410
371
351
343
346
346
347
370
374
351
339
336
336
336
263
636
382
323
321
324
331
339
351
371
385
390
377
339
316
311
315
316
319
332
348
348
325
323
323
323
322
317
610
326
319
322
327
335
349
371
389
399
401
372
341
329
329
333
338
339
340
343
352
370
356
343
343
341
339
270
613
381
326
321
324
329
334
347
364
378
383
376
338
311
304
304
306
306
306
305
308
308
324
331
312
308
308
306
307
275
596
310
302
302
311
314
331
346
366
377
381
361
330
310
309
311
315
319
319
322
331
348
353
331
327
331
332
321
407
513
331
328
326
339
346
359
377
395
407
405
380
345
333
333
333
339
340
342
349
367
358
340
336
336
335
307
473
493
327
321
324
329
341
354
372
389
399
395
365
334
323
323
324
328
329
336
354
360
334
327
327
326
327
238
658
338
315
316
319
327
337
352
374
390
395
377
340
320
319
321
326
327
330
332
337
357
357
337
335
334
334
323
372
576
329
318
321
326
334
343
363
377
387
387
358
325
310
310
311
312
314
317
318
319
324
340
344
326
320
320
319
314
319
587
319
308
311
317
323
336
351
370
384
387
367
331
316
317
318
322
324
325
327
329
336
354
355
339
334
334
334
325
371
556
333
326
329
334
341
352
369
388
399
401
377
343
329
328
329
331
332
334
335
336
341
362
354
341
339
339
340
295
542
417
336
330
334
340
348
362
377
393
404
400
365
340
330
330
335
334
340
339
342
347
364
364
348
346
346
346
340
394
540
346
341
344
347
357
369
385
403
415
413
388
355
336
338
338
341
343
344
345
353
370
369
351
349
346
347
337
414
549
348
338
339
345
350
363
380
396
405
404
376
343
329
328
326
329
329
331
339
356
346
328
323
322
319
303
393
514
310
300
299
304
309
323
338
354
366
360
329
295
285
282
284
285
287
288
291
306
317
298
290
290
291
293
204
632
317
287
287
293
301
313
328
350
365
374
361
325
306
304
306
311
315
318
321
328
346
353
336
333
334
335
335
316
624
340
331
334
336
344
357
374
393
404
405
380
345
329
326
327
327
327
327
331
345
340
321
314
313
312
302
318
543
301
289
288
293
298
305
320
337
346
346
318
285
272
273
273
278
280
282
283
291
308
315
299
299
300
303
300
315
557
312
309
314
321
332
349
369
388
398
408
387
355
345
344
349
355
360
360
366
381
399
379
372
371
375
372
302
659
404
371
377
383
391
400
417
434
447
454
444
406
384
380
374
380
380
382
385
405
407
382
370
367
361
358
273
660
368
337
330
331
338
344
358
372
381
386
367
328
304
297
298
297
298
299
312
324
312
296
294
293
291
258
449
422
287
281
283
292
300
315
334
352
362
358
326
297
291
292
296
298
301
303
304
308
328
334
313
310
309
313
303
333
564
310
302
305
312
318
331
350
368
378
380
358
324
311
311
313
317
321
321
323
324
325
333
355
345
336
334
335
335
263
628
371
325
322
328
335
343
355
372
386
392
385
352
321
315
318
318
319
320
320
322
325
337
347
329
322
320
322
322
253
639
335
314
316
321
326
337
351
370
384
388
371
338
319
315
316
321
320
323
329
327
331
339
357
360
340
342
345
346
305
536
434
342
336
343
350
358
371
388
404
413
413
384
350
340
339
343
342
345
346
347
350
368
372
352
348
346
348
342
371
574
346
338
340
343
348
362
373
392
399
403
376
339
322
319
320
322
321
323
324
330
347
344
323
320
319
321
303
424
486
319
312
316
321
332
345
363
383
393
389
363
330
317
317
319
323
327
330
331
340
355
351
334
333
332
333
292
520
430
327
324
328
334
345
358
375
392
403
401
368
338
332
331
335
338
336
339
342
357
371
354
351
346
349
348
276
656
370
345
340
346
352
368
385
403
416
424
412
375
351
345
345
348
347
350
349
362
373
354
338
336
335
330
264
612
392
316
309
309
314
321
334
345
361
371
363
325
293
284
283
287
284
285
292
305
313
290
284
283
284
284
199
631
299
276
278
287
299
312
328
348
363
367
354
320
303
305
314
316
322
323
330
348
356
339
331
333
333
334
251
659
345
330
330
336
344
357
372
391
401
407
395
356
336
333
338
337
339
343
343
357
373
358
347
349
346
346
279
632
384
339
339
344
353
357
372
388
401
408
404
369
341
334
337
341
342
346
348
363
374
354
345
341
343
340
267
629
370
328
324
327
333
343
356
370
382
387
379
347
321
316
317
318
321
323
329
348
345
324
319
319
321
319
275
635
316
306
305
312
319
330
344
361
373
374
355
319
304
301
305
306
309
313
325
338
321
312
311
312
312
252
573
356
308
307
315
319
332
346
366
383
388
384
352
326
326
329
333
333
341
345
362
370
349
350
352
352
355
312
639
365
351
357
364
373
387
401
416
430
432
414
376
358
357
352
352
356
359
376
376
353
342
338
339
335
255
654
340
312
305
308
309
317
330
346
354
357
340
300
275
271
268
269
269
282
298
288
267
267
265
268
255
302
502
269
258
265
275
283
299
316
336
350
351
327
298
287
292
298
304
312
322
342
345
330
328
331
332
333
297
645
342
334
339
347
354
367
387
407
422
426
404
370
356
354
359
359
362
365
369
381
390
374
366
365
366
366
289
659
373
354
354
359
363
371
387
404
418
420
403
364
345
340
340
343
343
347
345
345
355
370
357
347
344
344
344
272
639
378
336
336
337
342
351
364
383
399
406
396
361
333
329
330
332
334
333
335
336
340
357
364
344
342
339
342
339
312
618
347
336
338
345
353
364
382
399
415
411
396
358
341
338
342
343
345
347
348
348
366
369
351
348
341
345
338
350
596
339
329
329
333
338
350
366
379
389
389
365
325
313
309
308
311
312
313
314
329
339
321
311
306
309
307
223
627
332
293
289
292
297
304
318
333
347
351
339
297
272
265
263
263
259
262
260
260
276
272
251
243
243
239
235
250
492
238
228
230
236
248
259
278
298
312
317
292
260
249
251
256
261
268
272
277
280
300
314
304
299
301
306
310
231
643
340
316
320
328
339
351
369
391
408
419
408
374
352
350
355
358
362
366
368
369
377
395
400
382
383
381
382
375
421
614
383
376
379
383
393
402
421
441
449
452
429
390
380
376
379
378
380
380
384
389
405
397
377
372
373
374
330
578
466
367
361
368
371
373
388
404
421
425
421
382
346
334
332
330
329
328
325
327
341
327
305
294
292
288
253
420
421
270
258
259
264
272
282
303
315
324
322
290
257
248
248
252
256
257
261
271
289
287
270
269
269
273
260
344
481
276
269
274
282
294
306
327
348
360
361
334
303
293
296
298
300
305
309
315
332
343
326
318
318
324
324
241
655
340
319
318
325
334
346
362
383
400
407
394
358
339
338
341
342
346
351
351
359
379
378
362
359
361
363
346
449
550
361
356
360
365
376
387
403
421
432
432
401
368
356
354
356
354
353
353
354
363
375
359
348
344
342
340
262
639
361
327
321
324
330
335
347
362
374
378
365
328
300
292
293
297
291
297
298
304
322
317
302
302
298
302
282
403
451
305
298
297
307
314
332
349
367
383
381
354
326
313
310
316
317
322
329
349
357
335
325
325
325
329
254
654
345
322
323
321
331
342
359
377
388
393
378
340
316
312
312
315
315
328
346
338
318
313
313
312
301
353
554
309
301
302
308
319
332
351
368
380
381
351
319
311
314
316
320
323
333
351
351
336
331
332
334
332
323
631
337
328
329
337
346
359
376
395
408
412
387
354
341
342
344
351
349
354
367
384
374
362
360
364
369
326
562
479
364
360
362
371
380
393
412
427
436
434
404
374
362
358
363
365
364
369
389
392
369
362
359
358
358
286
658
359
342
342
346
355
362
380
396
405
406
384
348
327
323
324
322
320
333
349
343
318
310
306
304
300
296
590
297
285
283
288
292
304
319
338
343
346
316
280
265
262
263
263
265
273
291
283
267
259
259
257
252
286
514
258
249
251
259
268
281
302
319
333
333
306
277
270
268
275
280
285
289
305
324
312
306
304
309
312
258
564
388
320
317
324
332
346
361
383
400
412
406
372
348
342
346
350
353
357
359
370
388
374
365
362
364
363
302
623
418
353
347
350
356
364
375
393
405
412
401
364
332
325
323
321
322
322
321
325
342
341
320
316
314
314
301
371
502
307
300
303
308
316
328
344
362
370
369
342
310
296
298
300
303
307
309
320
337
326
314
314
316
315
260
556
374
314
312
317
324
333
347
364
380
388
380
347
322
318
322
325
329
333
340
357
363
346
342
343
343
340
344
587
346
337
338
342
351
363
378
397
412
411
386
352
338
341
342
345
348
352
368
373
354
351
352
355
350
373
574
358
351
355
361
372
384
403
419
428
432
404
375
357
359
358
359
363
381
393
379
366
360
359
359
307
602
428
353
344
346
357
364
374
393
405
411
394
360
332
324
317
314
318
324
340
325
300
296
291
285
242
477
384
272
262
262
267
273
286
306
319
328
319
280
252
248
248
253
258
279
290
278
266
261
265
267
212
529
341
271
270
275
285
298
314
338
357
367
357
326
303
305
306
311
318
334
351
341
332
329
334
337
282
591
408
338
336
342
351
362
376
397
414
422
409
374
352
348
352
357
359
359
368
386
380
367
364
363
364
315
582
445
356
352
357
362
371
386
403
421
427
418
380
354
347
348
348
347
348
348
350
361
377
356
347
345
345
344
298
640
348
333
334
338
344
355
369
389
398
407
383
343
328
320
324
319
324
321
326
339
344
324
314
316
311
305
294
562
304
291
291
300
306
316
331
350
359
358
332
301
284
283
283
285
289
292
312
320
299
290
289
292
290
217
620
306
283
283
290
297
311
331
350
364
370
346
314
301
300
301
307
310
320
339
342
320
316
315
317
312
330
584
317
304
305
307
318
329
347
365
375
373
340
307
297
296
296
297
298
298
304
321
322
304
301
300
298
276
414
455
295
291
294
301
313
325
345
365
377
375
343
317
308
310
313
316
319
324
326
331
350
359
343
341
344
346
329
439
534
349
344
347
354
365
378
398
417
428
428
397
365
357
358
363
362
366
366
367
370
380
391
375
371
371
378
373
305
658
384
362
365
369
372
389
404
423
433
440
419
379
355
348
352
347
344
347
345
345
356
374
349
340
332
334
330
246
652
334
312
308
311
319
329
343
361
372
375
355
320
295
292
293
289
295
298
304
324
326
302
295
296
296
291
300
578
300
291
291
298
310
323
346
367
378
380
352
320
308
311
313
313
321
323
336
353
347
331
329
329
332
281
555
446
329
324
327
335
348
360
382
397
408
399
365
337
331
335
333
338
338
340
341
343
347
368
367
350
346
348
347
303
546
469
339
333
333
340
350
365
386
402
413
410
378
348
336
338
337
339
340
342
344
348
356
372
357
342
345
344
348
271
658
353
339
339
345
346
367
379
400
415
421
402
364
345
337
338
339
341
341
338
341
363
363
340
336
332
333
324
339
601
325
310
312
315
323
336
352
366
377
377
351
314
300
298
299
303
305
305
307
320
334
317
306
302
303
301
200
661
319
290
289
293
299
310
327
345
361
368
352
315
295
293
292
293
294
294
297
303
328
315
299
296
297
299
243
562
396
293
288
294
301
310
328
347
368
379
374
340
316
313
317
318
322
324
328
331
343
363
352
337
336
339
342
258
660
395
340
335
340
350
360
376
395
414
421
411
377
353
347
349
351
351
351
354
356
361
384
372
356
353
354
352
287
627
435
341
337
342
349
356
368
385
398
412
405
373
346
339
343
337
343
344
344
345
356
372
361
345
342
344
341
266
643
378
333
333
337
344
351
363
377
389
399
392
358
331
325
326
327
328
330
330
332
347
357
338
330
329
329
329
248
657
333
315
314
317
324
332
344
360
371
376
360
325
305
302
304
303
306
301
299
309
325
315
300
296
296
299
240
547
351
291
286
292
300
311
324
341
357
364
360
328
300
296
295
298
303
304
312
329
336
316
310
311
314
314
270
605
324
312
315
324
333
345
362
380
395
398
378
344
331
327
330
336
337
343
358
372
357
346
345
343
344
264
653
366
336
332
336
344
352
362
378
388
396
379
340
318
312
310
311
311
317
331
327
308
301
302
301
283
392
451
296
289
293
300
312
326
342
359
370
367
339
309
298
300
305
315
323
343
344
324
329
330
329
329
348
568
342
340
346
350
362
374
395
415
423
425
404
369
355
357
361
364
365
385
398
378
362
363
365
364
291
658
410
352
350
352
357
368
379
398
415
419
405
369
344
338
339
337
343
358
371
354
336
333
334
332
275
599
398
324
319
323
328
336
352
367
384
392
384
344
323
316
319
318
322
326
346
353
330
323
321
323
324
241
657
335
313
313
320
325
336
353
373
385
391
372
336
320
317
321
322
326
328
335
352
357
340
335
334
335
332
291
640
333
324
322
329
336
346
362
380
393
396
374
340
322
320
321
326
328
330
332
337
356
355
336
334
334
335
316
436
494
333
326
328
335
341
354
368
386
397
397
367
336
324
325
327
328
329
333
333
340
357
359
343
336
336
338
321
406
511
337
329
331
336
345
356
371
386
403
401
373
343
328
330
329
332
334
335
342
355
367
348
337
334
337
335
269
637
341
325
321
327
330
338
352
366
371
377
355
314
294
282
282
277
278
275
278
294
287
260
253
247
242
220
328
418
227
215
215
222
232
243
261
278
288
287
257
227
218
221
225
231
239
248
273
278
263
258
265
268
274
216
619
295
281
286
299
312
330
350
370
388
397
378
346
335
336
340
349
353
357
367
385
397
381
375
376
377
377
333
660
383
369
370
377
385
397
415
434
444
447
424
389
375
372
371
374
375
378
381
381
393
406
389
381
380
380
381
305
661
386
371
368
373
380
389
402
420
432
434
415
378
356
350
351
350
351
349
352
351
355
369
373
355
347
345
344
336
359
580
338
325
325
329
335
346
359
375
385
385
357
324
303
304
303
304
300
301
299
299
306
322
318
301
299
299
295
258
472
391
287
281
286
295
307
319
335
351
357
355
325
295
284
284
287
288
292
295
298
300
314
326
311
305
305
310
309
241
624
325
309
311
318
328
339
355
377
392
399
384
348
330
326
331
335
340
341
345
347
361
377
364
356
351
355
354
284
656
372
354
350
357
365
375
395
409
422
426
411
374
350
346
348
348
353
353
355
357
374
375
353
351
349
348
327
457
503
343
332
333
336
347
353
369
384
392
387
356
320
305
303
304
305
304
307
322
333
317
306
302
303
302
221
627
333
293
291
293
302
313
327
344
360
368
352
313
293
288
290
295
300
305
323
333
314
308
309
313
315
236
655
333
316
317
324
332
345
361
382
398
402
384
350
331
332
336
338
341
348
362
367
348
343
341
341
341
280
650
344
329
328
331
338
347
361
378
391
393
369
333
311
310
308
310
311
313
316
330
332
313
309
307
311
300
352
516
310
303
305
312
320
335
352
370
383
385
356
328
316
320
322
325
327
338
353
364
341
338
344
343
346
311
629
353
339
344
352
357
372
389
406
419
423
400
365
350
349
345
354
359
367
383
381
361
358
360
360
349
427
570
354
341
344
346
356
366
380
398
405
402
371
336
320
319
321
323
331
348
355
330
322
318
321
322
242
656
341
314
314
320
327
338
353
375
388
394
374
340
322
319
321
324
326
333
348
354
335
329
330
327
323
326
599
326
315
314
318
321
335
349
365
375
374
343
307
294
290
290
288
291
307
310
288
283
282
280
283
219
590
286
271
273
281
286
301
318
340
359
360
338
304
291
296
299
302
309
329
341
331
320
322
328
329
261
635
377
335
336
342
354
366
383
404
418
426
411
376
355
350
351
354
356
366
385
386
362
355
356
354
347
367
616
351
341
342
347
355
369
386
403
413
415
383
350
340
342
341
345
349
353
370
375
356
349
348
350
348
319
648
347
335
334
340
346
356
372
393
402
402
373
336
322
320
321
320
321
322
319
328
342
329
316
311
311
311
236
598
345
297
293
296
300
309
322
341
356
365
353
315
291
286
289
289
293
297
300
303
308
322
335
319
314
314
317
318
280
622
328
316
318
325
334
346
364
383
397
403
381
347
330
330
331
336
340
342
342
343
350
362
371
355
348
350
351
347
336
624
357
346
349
352
355
368
381
398
415
416
395
358
339
337
333
336
340
338
343
351
366
361
342
341
341
341
299
512
440
331
327
329
334
344
357
378
391
396
390
359
327
317
314
317
317
318
320
324
342
338
318
312
309
308
272
483
434
303
296
300
307
316
331
350
367
376
373
341
307
301
302
304
305
307
316
338
339
318
314
315
316
310
339
587
315
305
305
313
322
333
352
368
378
379
347
312
300
300
299
301
301
303
313
327
318
301
298
296
298
236
540
366
287
280
284
288
300
313
333
351
359
353
317
292
288
290
293
297
302
306
319
337
329
320
320
322
324
257
612
378
327
326
333
340
352
367
387
404
415
405
370
346
341
345
345
348
350
355
371
374
356
351
352
352
349
335
633
351
343
345
348
357
367
383
400
414
417
391
355
341
340
339
341
345
346
351
368
368
352
349
351
350
332
458
505
347
341
344
348
360
373
391
409
422
420
388
360
345
347
347
348
349
351
360
376
370
354
353
353
353
309
552
428
349
340
346
352
364
376
397
413
421
413
381
347
340
343
340
348
347
351
371
377
357
351
345
348
350
289
656
355
341
337
339
350
360
376
390
399
402
380
336
317
313
308
307
306
314
328
322
294
288
286
284
252
404
443
266
256
258
264
272
285
305
317
328
320
288
256
247
248
249
254
263
286
289
268
264
266
267
269
210
619
283
271
274
284
296
311
333
355
370
375
354
321
308
319
321
324
332
351
370
363
351
349
353
358
298
620
449
355
354
356
365
377
393
411
430
433
422
388
362
354
352
357
359
374
384
369
353
349
350
350
284
626
412
337
330
333
337
347
356
377
393
399
387
347
323
318
317
320
325
344
342
328
320
318
321
321
240
657
339
316
316
322
332
341
359
377
391
394
373
338
323
320
322
324
325
330
345
348
338
330
328
330
328
262
652
336
320
319
325
332
344
359
380
393
398
375
341
324
322
324
327
328
331
333
334
341
358
356
342
340
342
343
287
589
412
339
332
334
341
351
365
385
400
408
403
370
341
332
332
332
336
338
342
342
342
352
370
353
345
343
345
345
269
656
359
334
332
336
342
350
364
379
389
393
377
337
315
311
308
307
306
305
305
305
304
310
324
311
299
298
296
293
211
608
309
281
281
285
292
300
320
339
350
356
348
311
290
285
289
296
300
304
305
309
317
331
347
327
325
326
324
324
335
571
338
328
331
338
347
361
374
398
410
413
389
354
338
334
337
339
345
349
352
355
372
380
361
358
355
357
351
366
617
354
342
345
348
358
368
383
398
410
412
386
349
333
332
335
336
340
339
344
358
367
345
339
336
336
333
271
655
337
320
318
322
328
339
355
371
382
386
363
325
311
308
309
311
314
319
318
325
346
340
326
323
324
327
279
548
414
325
321
326
332
339
354
376
391
406
397
364
340
336
334
337
340
343
352
347
354
373
383
362
352
356
355
340
437
568
354
345
350
354
364
377
395
410
420
415
390
359
344
338
340
335
336
334
343
362
350
326
322
325
321
265
568
420
314
305
309
316
323
340
356
373
380
371
332
302
297
294
296
297
297
310
331
323
305
301
301
301
280
422
490
302
291
296
304
314
329
352
370
382
379
345
315
310
311
314
320
323
325
328
343
361
347
338
337
338
341
252
659
362
332
329
336
345
355
373
392
408
412
396
357
336
331
331
332
332
333
334
333
340
359
349
334
331
329
329
262
606
374
317
310
314
318
327
339
357
371
380
369
334
306
299
300
302
303
305
309
309
318
337
329
315
316
318
319
265
561
389
319
316
319
328
337
350
369
386
398
390
357
329
323
325
328
330
332
335
345
362
357
343
342
344
343
306
522
447
343
338
340
347
357
370
390
405
416
412
377
347
342
340
343
345
346
349
363
375
358
348
348
350
347
271
655
362
338
332
334
341
352
365
382
390
394
375
340
314
308
309
310
312
308
323
333
320
304
300
300
296
241
526
361
290
287
290
298
311
326
344
360
368
365
333
305
299
301
308
309
318
336
347
331
318
316
316
318
243
621
361
305
300
305
312
323
338
358
371
379
369
334
311
310
312
317
322
333
355
357
336
333
332
335
332
346
625
340
331
334
340
346
359
375
395
406
404
377
342
333
331
336
335
338
343
362
359
341
336
337
335
330
343
605
331
321
322
325
333
345
362
381
392
391
361
328
314
313
316
316
319
321
327
347
346
330
329
330
327
311
450
491
330
327
327
339
345
363
379
400
409
407
378
346
338
342
345
346
347
353
358
379
387
362
363
359
362
360
312
657
373
352
350
358
366
375
394
411
424
425
403
363
345
341
340
342
341
342
354
370
354
338
333
331
330
263
607
395
317
313
315
320
332
343
365
378
386
370
336
309
302
304
306
308
313
338
339
317
313
310
311
310
247
652
318
299
300
306
315
329
348
368
380
385
356
320
308
306
308
311
314
316
329
351
339
326
324
327
326
279
549
432
324
317
321
328
339
353
374
390
398
390
353
326
317
317
318
319
320
321
324
337
340
318
311
310
305
293
343
532
293
280
278
282
287
298
314
327
338
335
304
270
257
253
254
257
257
257
258
259
270
287
273
265
265
267
270
188
606
297
269
271
276
286
299
318
339
355
366
354
323
303
301
310
314
322
327
332
338
340
351
374
369
358
361
362
365
312
615
446
368
366
371
379
390
404
424
440
447
444
409
382
374
374
376
378
379
379
380
381
390
408
402
385
381
382
381
332
605
468
376
369
369
374
380
394
411
425
434
426
391
362
352
348
352
353
354
356
352
356
354
360
380
368
356
351
354
353
282
647
385
343
339
343
349
357
374
393
404
413
400
365
338
328
329
326
326
329
326
329
330
333
351
336
318
316
313
311
238
609
337
297
294
294
298
308
320
337
344
351
342
304
275
266
267
266
268
268
268
270
290
297
275
267
269
268
268
217
590
281
267
270
276
287
301
321
340
353
358
336
300
287
288
290
294
299
304
308
325
338
321
312
314
318
319
233
656
340
317
314
321
330
343
360
378
394
400
385
349
330
327
331
334
338
341
345
352
371
373
355
354
355
356
353
370
633
360
353
355
361
370
383
401
420
432
431
403
369
355
356
357
357
360
361
365
365
368
381
392
377
366
370
367
369
310
658
372
355
359
362
367
380
396
413
429
432
408
373
349
348
345
349
351
348
347
350
365
371
353
343
346
346
346
311
630
350
335
339
343
349
364
376
398
410
408
391
354
335
336
331
336
335
336
337
357
364
344
331
327
328
328
244
657
343
314
312
317
321
333
349
364
376
379
358
317
296
294
292
292
291
292
304
320
308
287
283
280
279
255
385
455
272
265
265
272
283
296
315
334
344
342
310
282
271
274
274
281
285
287
290
309
319
308
301
303
307
308
229
642
347
308
308
312
322
334
352
374
394
401
390
356
334
331
335
337
339
344
347
348
355
373
379
362
358
357
361
356
366
641
359
351
351
358
365
377
395
413
427
430
403
364
349
347
346
349
352
349
353
353
355
359
379
366
353
352
353
350
286
617
405
340
338
339
349
359
372
392
406
416
410
373
344
333
333
336
341
345
342
343
346
362
372
350
340
345
339
339
283
650
347
329
328
330
336
346
361
380
389
395
372
333
310
305
300
300
304
303
303
303
319
322
302
292
289
288
286
222
616
286
264
263
265
271
282
295
313
324
329
307
272
253
251
250
254
255
259
261
262
274
295
284
276
276
281
283
220
557
352
289
288
294
306
319
336
360
381
393
389
356
331
326
331
335
340
346
351
354
358
361
368
388
384
372
371
374
376
310
648
442
371
366
370
376
385
398
418
435
446
437
403
373
364
365
367
367
368
369
369
376
388
393
373
368
367
367
364
356
636
361
351
350
355
362
371
385
402
412
412
391
351
334
331
331
333
335
335
336
335
339
356
357
343
336
339
338
332
341
582
336
327
329
333
344
355
372
390
407
409
389
347
329
327
325
331
336
332
336
345
362
357
336
335
334
336
310
455
487
336
326
333
337
346
359
376
395
405
400
371
337
323
321
324
321
326
326
331
349
354
330
325
319
323
321
243
656
334
310
311
314
323
333
348
367
378
385
366
325
305
303
302
304
305
307
307
312
326
333
315
307
305
306
304
234
646
310
292
294
297
304
317
331
350
364
370
351
315
297
295
298
300
304
305
309
312
316
319
336
344
329
324
325
326
325
311
622
336
324
325
332
346
354
376
396
410
416
395
363
341
338
340
345
341
348
349
350
356
370
369
352
346
349
345
320
472
487
338
330
332
336
348
358
371
388
395
396
369
330
318
312
312
317
318
319
317
331
345
329
322
314
318
316
239
627
355
308
311
315
323
338
352
372
390
399
389
360
333
324
320
321
325
328
334
354
361
347
332
330
329
327
243
655
369
314
311
314
322
334
351
372
388
393
385
349
327
324
324
327
332
333
333
337
352
361
344
336
336
336
335
253
660
341
325
323
325
330
340
352
377
385
389
377
335
313
309
309
307
311
313
312
314
334
337
315
313
313
313
309
311
591
319
307
307
317
330
342
359
384
394
398
375
338
326
325
327
328
333
331
345
370
364
343
340
341
344
334
392
613
345
333
338
343
355
368
384
404
410
412
384
346
333
334
333
336
336
341
364
365
342
333
331
328
330
238
660
344
318
315
321
330
344
356
377
389
395
379
339
319
316
317
319
324
325
333
359
355
333
329
329
327
319
372
600
327
319
322
328
336
354
367
390
402
399
372
336
322
319
324
329
331
331
337
351
358
338
329
327
327
323
232
659
335
304
302
304
309
320
332
350
358
363
346
308
282
278
278
279
277
280
279
284
301
304
284
280
281
281
280
255
594
287
273
276
282
294
310
328
346
363
366
349
312
296
298
301
305
312
314
317
324
340
351
333
329
332
335
336
277
655
345
331
333
339
348
364
381
403
416
421
404
369
350
346
350
353
355
358
361
368
385
380
366
367
369
370
345
492
542
363
356
359
366
375
388
404
421
431
427
396
364
352
351
352
354
356
358
367
380
365
352
354
354
354
304
578
430
347
342
345
351
359
375
391
405
414
407
372
345
335
334
338
337
337
338
343
359
355
340
336
335
338
326
393
528
329
322
324
331
338
351
370
388
398
398
368
335
321
320
320
321
324
330
343
350
334
326
327
328
326
247
637
341
312
312
315
321
331
345
360
369
374
354
316
292
284
282
282
282
287
300
301
279
272
270
270
267
191
565
273
249
247
252
259
268
283
302
313
320
302
267
247
246
249
253
259
272
290
283
273
275
279
283
263
425
420
299
297
303
312
326
343
367
382
395
398
367
349
333
336
344
348
360
373
378
356
357
356
358
352
383
566
356
349
354
359
370
382
400
420
429
433
405
373
359
355
359
372
393
394
379
368
367
371
371
297
660
421
368
358
362
366
376
388
400
412
413
397
359
337
331
332
329
345
358
347
330
326
328
328
306
437
491
324
317
319
326
335
349
367
385
394
388
359
333
324
326
329
333
347
357
341
334
337
339
339
269
648
378
340
335
339
347
359
371
390
403
407
398
361
340
336
338
334
338
353
358
353
334
335
335
327
285
537
426
318
311
309
318
324
340
353
368
374
368
332
305
295
296
298
305
326
326
308
300
299
301
302
212
659
320
297
294
300
309
324
340
359
372
377
355
322
306
304
309
313
323
339
342
321
318
320
323
319
325
618
324
311
312
320
329
344
361
381
395
392
361
330
320
319
320
319
322
336
340
336
324
322
325
327
263
594
390
316
312
312
316
325
341
357
374
379
363
327
303
297
297
296
300
302
319
321
311
301
302
300
303
229
643
316
292
290
297
307
319
338
357
372
376
355
321
307
309
311
316
320
326
343
353
340
333
336
337
337
284
652
346
332
332
337
345
358
378
397
412
413
390
356
342
340
346
344
351
348
367
372
364
353
352
354
351
291
655
360
344
347
351
359
372
385
405
413
418
394
356
338
334
337
335
341
346
365
366
346
341
335
338
331
338
612
335
314
319
326
336
341
359
372
383
384
352
316
303
302
303
305
307
318
333
328
307
305
306
309
258
544
402
305
300
305
311
319
339
359
375
384
377
341
319
313
315
318
322
326
336
354
343
329
327
331
331
266
607
394
325
321
323
333
344
359
379
396
403
391
355
335
330
330
332
336
338
341
354
363
354
344
344
346
343
256
659
358
331
326
331
338
347
363
381
393
397
378
340
320
318
317
317
320
320
321
329
346
335
322
320
324
325
251
618
363
318
312
319
324
337
351
368
388
391
381
347
325
318
319
318
319
324
323
330
345
347
341
330
329
333
332
257
654
349
326
333
334
342
356
368
388
403
404
390
351
336
332
330
333
336
337
363
364
347
338
337
338
339
256
659
355
330
330
330
338
350
369
388
399
403
383
349
331
330
329
332
333
336
356
362
342
333
332
329
332
258
659
342
323
321
326
336
347
367
383
397
402
375
338
323
323
325
326
330
332
333
345
358
349
341
340
340
341
246
661
356
329
324
327
337
349
368
387
402
409
384
343
321
320
319
321
322
320
320
327
343
337
326
328
325
330
253
604
380
317
311
315
321
327
346
359
373
384
369
329
302
296
296
291
294
302
300
314
319
307
296
297
302
300
220
639
316
296
296
300
306
318
334
352
365
369
357
321
306
304
306
309
313
322
343
346
336
329
327
329
329
242
659
351
321
320
323
331
342
359
375
389
392
372
331
316
312
315
317
320
323
329
343
350
337
329
333
334
335
300
648
337
323
325
331
341
353
372
388
405
404
376
338
327
323
330
329
333
340
340
350
363
373
354
347
350
351
347
400
580
351
348
349
354
363
378
394
409
419
420
394
358
345
346
344
348
351
356
357
371
386
366
359
354
355
354
272
660
377
345
341
344
352
363
374
395
405
409
392
355
332
326
327
327
330
332
332
343
362
346
330
329
327
327
246
656
365
319
316
320
329
340
356
374
387
394
381
339
318
312
314
314
316
319
320
327
349
342
325
323
325
321
276
531
437
318
311
314
322
328
347
365
383
390
384
352
320
318
315
320
321
322
326
330
341
360
340
328
330
332
332
245
659
342
319
316
324
330
342
359
377
389
391
367
330
307
302
301
301
299
299
304
316
336
321
305
304
303
303
245
579
406
299
297
299
310
317
329
348
365
377
369
338
308
304
306
306
307
315
316
321
344
343
319
320
316
318
311
356
601
311
303
305
313
323
338
358
374
386
390
356
323
312
313
316
320
319
323
323
334
353
344
332
332
331
336
258
657
391
332
330
334
345
354
370
390
407
410
402
362
335
326
325
328
330
332
334
351
358
345
330
329
326
324
251
638
354
316
315
316
325
334
351
370
380
388
378
337
312
306
306
305
308
307
309
328
337
319
309
308
312
310
230
653
337
307
305
312
321
335
352
371
385
392
379
343
324
324
328
332
335
335
344
364
369
351
348
350
351
351
285
659
360
343
346
349
360
370
387
405
416
422
400
363
346
346
341
342
347
345
347
355
374
362
348
346
350
345
282
632
388
334
329
333
338
350
365
388
400
406
398
362
338
332
334
335
333
336
343
348
372
362
348
347
351
348
313
537
484
346
340
342
344
359
371
388
407
411
406
368
344
331
331
332
335
335
334
346
366
347
331
330
327
331
261
625
404
317
317
319
328
339
350
375
391
402
388
346
323
320
321
323
324
327
345
363
346
325
325
326
329
253
655
387
316
316
317
330
338
353
378
392
399
385
343
325
316
320
321
324
324
339
361
340
329
322
323
324
263
600
420
315
306
308
317
332
345
364
383
389
377
341
315
308
311
313
315
317
318
334
352
331
322
321
322
323
234
659
361
313
309
314
322
336
352
372
389
394
379
342
320
317
318
319
322
326
326
330
339
359
341
332
331
330
332
242
660
364
322
316
324
332
339
360
379
395
405
390
356
330
328
328
328
331
336
335
340
346
368
360
346
345
347
346
313
516
500
347
334
339
354
360
377
395
412
420
419
383
353
342
340
343
344
343
346
349
370
369
339
333
331
325
317
336
617
314
298
299
305
311
321
341
359
367
366
338
302
286
285
282
287
288
291
310
318
298
285
283
282
286
193
644
326
279
276
282
290
304
326
348
364
376
360
321
299
297
299
304
312
313
319
343
351
331
326
326
328
328
243
660
343
323
321
329
338
355
375
396
411
417
393
352
337
332
335
337
340
342
344
351
371
369
349
343
343
343
320
453
584
338
333
336
344
354
372
393
413
424
423
390
358
350
350
351
354
355
354
360
371
384
364
355
356
354
355
269
662
352
339
335
340
347
358
371
392
403
404
380
341
321
317
315
315
312
313
311
321
335
319
306
303
302
300
233
580
345
287
280
284
292
302
315
333
348
352
345
308
282
276
278
280
282
284
288
292
308
315
298
297
297
301
304
257
615
315
303
308
314
325
338
356
376
391
396
377
341
326
324
327
329
333
335
337
340
355
361
344
338
337
338
334
291
636
339
322
324
327
334
348
363
379
390
394
371
335
316
314
317
318
318
320
322
332
350
341
329
329
330
332
285
550
409
327
323
326
334
346
359
378
396
406
400
365
339
333
334
339
341
343
346
352
369
377
361
355
354
356
357
291
656
368
348
349
353
360
373
389
407
419
422
404
367
350
344
344
348
352
355
359
371
378
362
352
350
348
350
278
648
376
341
339
348
353
361
378
397
413
417
401
367
340
336
335
335
337
334
336
341
360
348
324
327
324
325
274
526
402
308
309
310
311
324
335
352
365
374
365
334
303
290
291
294
298
297
304
304
326
336
315
313
312
314
316
254
634
328
311
321
326
332
344
358
381
393
398
376
341
327
326
326
327
335
335
341
362
356
338
337
339
338
333
366
569
345
334
340
343
351
368
385
402
417
416
388
357
343
344
343
348
347
353
369
383
366
359
351
358
350
294
631
404
345
345
344
351
362
378
392
410
412
402
368
340
334
331
335
334
335
347
362
351
331
323
320
318
293
420
492
301
287
288
292
299
310
328
340
348
344
311
277
269
262
269
271
272
286
303
296
276
275
276
275
261
363
475
278
272
278
285
295
313
333
352
365
362
335
309
304
305
310
315
320
326
343
363
348
336
336
342
341
284
600
434
344
340
346
356
367
381
401
419
429
421
385
361
355
354
357
359
356
361
375
384
364
358
357
358
360
286
659
364
349
349
355
363
375
389
409
420
423
405
367
352
348
351
352
352
353
364
384
374
354
353
354
352
314
560
425
349
345
349
360
363
379
399
412
422
414
378
349
342
341
347
343
348
367
376
351
343
338
341
337
259
655
358
329
324
324
337
342
358
374
381
385
367
333
309
303
299
302
301
317
328
315
298
291
290
290
245
498
386
281
276
279
286
297
311
330
346
356
349
314
288
283
282
286
290
304
323
317
298
298
299
302
286
409
492
307
300
306
313
322
338
355
374
385
379
352
327
321
323
330
333
338
360
367
347
340
342
342
344
277
660
346
338
339
350
352
364
381
401
410
414
390
356
342
343
342
345
351
366
374
356
345
345
343
345
260
659
360
337
333
336
343
353
367
385
393
398
377
341
324
322
324
323
335
351
349
326
321
320
321
310
384
511
319
307
310
315
321
335
349
364
371
368
337
307
300
296
299
304
319
328
305
295
297
297
297
224
611
312
290
292
295
305
314
331
349
360
366
345
314
300
300
302
306
312
330
344
329
322
323
327
329
257
636
357
330
330
337
347
356
373
391
403
413
397
362
346
344
347
348
351
354
368
385
368
358
357
360
359
284
655
378
353
353
358
363
374
388
405
416
418
406
367
348
344
342
346
343
345
362
366
349
337
333
331
329
304
578
329
313
315
316
326
336
346
360
368
368
341
310
296
293
293
300
298
316
331
322
307
302
305
301
252
537
381
303
310
307
320
330
352
366
387
393
387
359
334
333
335
339
343
361
381
369
350
343
345
345
293
598
431
341
339
344
351
363
378
396
409
415
400
367
345
341
342
341
345
356
375
365
344
340
338
339
280
589
408
329
325
327
335
343
357
376
391
398
384
349
329
325
327
327
332
333
341
361
358
338
336
337
338
287
566
422
334
330
331
336
345
359
375
391
399
387
353
329
328
327
327
329
333
332
340
357
357
339
332
334
333
294
504
430
325
315
317
321
329
343
357
371
379
369
339
308
302
300
301
302
303
305
306
318
334
322
310
309
308
311
234
637
331
307
304
312
321
334
351
371
385
394
378
346
326
322
323
329
333
332
339
359
371
349
340
341
341
340
294
650
347
329
330
337
346
358
375
392
402
404
377
345
332
332
332
335
337
338
346
364
366
345
339
338
337
327
392
570
337
329
331
337
345
360
375
395
404
401
370
337
329
330
329
332
333
334
334
342
356
344
328
327
329
330
253
643
364
321
317
323
330
339
353
369
383
389
374
343
324
316
316
319
322
324
325
327
329
345
354
338
332
333
335
323
389
539
332
324
326
334
343
356
374
392
401
400
373
342
331
330
334
335
336
336
341
341
352
369
355
343
343
342
344
271
646
371
335
335
340
346
355
373
390
400
408
395
359
339
330
334
334
333
337
340
339
353
364
351
337
339
338
337
263
651
352
328
330
334
343
353
367
383
395
398
380
345
327
325
324
326
326
329
333
334
352
360
337
331
331
329
326
346
587
332
319
321
326
335
348
363
382
391
391
364
330
315
314
315
317
