295
297
308
318
337
356
372
385
385
365
336
319
321
325
326
326
341
361
339
324
328
326
288
556
536
314
305
309
321
332
350
369
384
394
388
356
332
328
328
327
330
327
334
352
350
331
328
329
330
275
660
325
313
313
321
333
349
368
388
400
404
381
351
338
335
336
336
339
338
342
361
362
347
344
344
346
300
660
339
327
326
333
340
355
371
389
396
401
381
349
331
330
327
330
334
333
345
360
350
340
340
342
306
523
524
330
322
323
332
343
355
373
384
384
378
346
315
298
294
294
293
293
313
317
295
282
282
280
201
605
346
255
245
250
258
270
282
303
317
321
311
283
254
253
254
257
263
277
298
286
276
279
286
276
339
605
292
285
292
306
319
336
359
381
391
393
370
344
333
342
342
348
350
359
382
373
363
368
371
363
412
660
364
362
364
377
386
400
418
435
446
445
420
389
375
374
376
377
377
379
394
403
384
377
378
376
283
661
456
358
350
355
362
372
386
400
411
415
400
366
339
330
328
324
323
321
318
321
341
329
314
311
311
298
347
593
290
277
281
288
300
312
332
351
360
363
343
311
300
302
304
308
313
316
321
343
344
334
337
337
341
277
660
346
333
334
346
354
370
388
409
422
425
407
374
356
353
355
358
361
362
371
394
382
371
367
368
367
364
658
358
352
350
357
368
381
399
415
424
425
403
371
354
349
351
354
361
370
395
379
363
360
357
345
424
652
345
336
340
348
359
373
390
404
411
409
377
345
334
333
331
333
343
364
359
335
333
333
333
242
661
333
314
312
320
330
344
362
377
389
389
369
331
317
318
318
317
320
334
346
325
317
316
314
270
539
479
299
288
294
300
312
326
345
360
369
360
330
302
295
297
298
298
297
305
325
320
304
303
304
303
254
657
302
287
288
296
306
320
337
355
370
372
350
321
304
304
306
309
313
314
329
346
329
322
322
323
268
596
458
317
314
319
331
341
358
380
398
407
404
375
351
345
346
346
352
356
370
386
370
363
364
366
328
559
587
356
349
354
362
373
390
409
426
433
429
400
371
364
364
366
364
366
370
386
381
365
363
363
361
277
661
361
343
341
348
357
369
387
403
413
415
398
365
348
346
346
346
346
355
371
361
346
347
347
341
361
652
336
327
328
336
348
360
378
394
404
403
380
349
339
338
340
341
357
376
359
350
350
351
331
467
584
338
329
331
343
349
367
379
394
404
398
375
343
338
336
337
347
369
372
346
348
347
348
251
661
356
330
331
336
345
358
372
389
395
395
383
346
328
330
332
339
365
368
347
337
339
342
257
659
416
319
314
319
330
340
355
373
381
386
378
341
322
316
319
325
349
350
325
316
315
315
246
626
426
300
292
295
307
320
336
354
369
372
362
331
308
307
305
310
330
338
318
307
305
307
270
516
511
294
286
287
298
309
328
346
361
366
358
327
299
294
296
299
302
320
334
314
306
309
308
252
598
468
298
289
293
303
316
333
351
365
372
359
330
303
300
302
305
306
315
338
328
315
314
319
311
368
636
314
308
312
323
337
352
370
389
399
399
376
348
340
341
345
349
353
366
382
368
361
364
366
295
659
491
351
347
352
364
376
391
410
424
434
424
396
369
363
363
362
363
361
369
384
368
359
357
354
298
594
478
327
314
314
320
329
336
350
357
361
351
319
286
276
271
269
272
267
284
292
266
260
259
259
159
648
293
244
241
248
263
279
295
315
331
335
327
297
281
282
287
292
300
319
336
321
314
320
322
272
597
483
324
322
329
340
357
376
396
414
423
417
386
363
361
363
368
372
389
405
395
382
382
385
374
456
659
371
368
372
379
390
405
423
440
448
446
418
387
379
378
378
381
381
389
408
398
383
382
377
376
369
661
363
354
352
359
369
383
399
416
421
423
399
368
355
352
352
353
353
357
368
379
363
356
354
352
270
660
443
335
330
335
343
354
371
388
401
407
399
368
344
338
336
337
339
341
349
365
352
342
343
341
319
464
576
331
320
324
330
342
355
374
384
392
391
366
334
326
323
323
327
328
339
352
340
329
327
326
301
466
513
314
304
307
315
320
335
356
364
373
366
343
310
300
300
303
303
313
334
331
310
308
308
307
236
658
307
289
289
298
311
324
341
357
366
367
344
310
295
294
298
297
308
325
313
291
286
290
277
309
613
274
260
263
277
285
297
320
338
347
344
316
284
275
279
280
288
308
319
299
289
294
297
230
621
432
295
291
303
318
332
352
370
390
390
383
355
332
328
332
343
359
389
394
379
374
379
384
277
662
419
365
364
375
385
402
419
438
452
453
434
403
376
375
383
389
401
411
388
366
355
368
350
361
661
350
347
342
352
366
378
393
409
417
418
391
361
351
352
353
353
372
374
347
337
333
330
239
660
414
308
303
304
311
322
341
357
367
376
357
326
307
295
299
305
307
333
323
306
301
303
305
231
660
301
289
290
296
314
324
341
365
374
376
357
321
306
306
311
313
336
349
323
318
324
326
227
661
375
324
324
332
346
357
375
394
399
399
384
347
327
320
325
335
358
370
347
333
341
345
273
660
491
344
340
346
360
373
391
409
420
422
414
379
359
356
353
357
372
389
375
357
357
359
344
453
654
344
336
339
348
360
376
393
407
416
411
381
352
347
346
348
353
374
382
364
358
358
361
277
661
463
343
336
343
351
363
381
398
411
417
403
369
347
344
344
345
345
358
366
345
336
335
335
246
660
387
307
295
297
302
311
322
336
349
351
335
296
273
266
260
257
255
260
270
251
236
236
229
178
475
320
209
195
204
209
224
236
261
275
283
280
248
223
222
227
236
247
274
278
262
263
270
276
182
659
318
282
289
297
316
333
356
383
396
403
392
365
348
351
358
372
395
407
391
381
381
385
315
661
559
376
375
380
393
408
428
446
462
468
457
423
402
399
397
405
424
436
414
403
402
403
335
661
609
380
375
381
387
399
415
434
447
451
439
402
377
373
372
371
379
398
394
375
368
369
369
274
662
366
345
342
349
361
372
391
408
421
420
401
363
351
349
350
347
354
369
372
350
346
346
345
237
661
358
322
318
322
331
343
363
379
390
393
372
340
322
321
322
321
321
325
343
346
324
322
322
323
234
660
323
302
299
305
315
332
343
364
373
378
361
328
311
307
308
311
313
320
341
334
321
321
326
316
370
610
323
310
313
320
330
345
365
382
391
393
372
344
332
329
331
328
327
338
349
333
322
320
322
259
602
421
306
295
301
306
323
342
360
381
389
386
352
323
316
312
319
322
336
354
336
324
322
318
281
505
501
308
300
306
317
333
346
361
380
370
376
346
318
300
319
317
320
337
341
322
319
317
311
209
660
351
292
285
293
301
312
327
342
360
359
349
311
287
284
283
284
284
286
305
301
288
289
292
271
409
525
284
279
290
303
313
334
366
386
405
410
386
364
354
360
364
365
363
373
387
372
368
367
370
332
595
577
366
359
359
374
393
407
424
418
441
428
410
376
351
348
391
370
348
354
386
361
355
360
385
303
657
374
341
332
365
347
370
378
402
460
439
403
369
354
346
364
358
375
357
368
359
338
338
335
210
661
350
296
283
292
304
315
334
349
357
360
348
313
301
310
316
328
321
338
361
360
343
355
357
336
541
645
361
360
359
368
390
405
415
435
454
459
421
404
396
415
405
405
410
414
431
414
401
399
390
336
602
579
357
353
356
355
362
379
395
402
408
410
373
340
326
320
310
306
294
297
304
290
276
272
271
238
388
417
234
219
216
223
228
241
257
266
270
264
237
200
183
181
182
185
185
199
211
196
188
192
196
133
500
286
198
199
198
214
235
251
277
285
295
288
282
251
245
252
265
282
300
327
337
332
335
343
371
257
663
403
370
367
381
394
411
437
482
487
500
488
457
449
454
454
473
481
502
515
494
483
472
479
380
662
658
439
440
441
444
451
457
472
477
479
472
439
419
412
415
411
406
412
417
423
393
388
382
380
261
662
408
337
324
332
335
349
364
384
393
403
389
355
335
329
332
332
333
339
354
353
339
331
328
327
217
661
358
317
313
317
330
341
355
370
379
383
372
338
314
310
305
309
303
308
324
312
289
288
286
276
328
582
280
271
265
267
270
277
283
292
297
296
272
243
231
233
235
237
237
251
260
244
238
238
241
135
659
307
252
252
261
274
285
302
325
337
342
334
308
296
303
313
321
322
328
345
329
318
319
324
289
534
573
338
340
348
362
380
397
416
433
441
442
419
394
390
394
397
397
406
423
414
399
398
402
384
498
657
384
382
383
389
397
408
423
431
437
437
411
381
366
366
369
361
366
383
376
354
349
343
348
272
650
338
316
314
314
322
333
338
352
359
361
339
304
282
279
278
275
279
294
282
272
270
275
264
336
502
273
259
268
273
282
302
313
331
338
345
327
308
304
311
325
339
363
364
350
345
355
360
286
661
351
341
342
353
361
380
405
423
431
431
413
385
374
379
383
389
410
416
393
381
379
372
279
661
433
348
341
347
358
368
391
413
432
439
432
405
387
383
385
384
390
409
395
375
366
363
347
416
623
341
327
329
333
343
355
367
377
379
375
344
319
304
304
303
301
304
315
294
277
273
271
200
554
339
250
243
249
258
271
286
303
319
326
320
297
274
267
270
274
285
306
311
298
293
299
302
201
660
312
289
287
300
306
322
345
366
383
389
373
343
331
333
336
341
347
369
368
349
350
353
343
361
659
342
332
333
344
356
366
384
402
408
410
386
361
357
365
370
370
376
388
395
380
371
375
376
257
662
426
361
353
359
364
379
395
414
427
432
411
380
362
362
363
360
362
363
382
377
362
360
363
342
450
649
333
314
320
315
316
328
342
354
358
357
332
301
293
285
286
287
288
303
301
279
275
275
278
205
631
296
272
274
285
300
318
340
361
376
387
374
351
340
341
349
350
348
357
371
352
347
353
359
254
662
447
361
356
361
365
374
392
406
418
423
411
382
367
364
364
363
359
363
373
354
339
338
331
286
562
494
315
302
307
310
314
327
346
352
356
353
323
296
290
290
286
285
286
299
302
282
282
288
293
240
645
308
294
293
304
314
332
350
368
380
387
369
343
333
334
339
341
342
351
367
354
345
350
356
278
660
492
345
337
340
347
358
375
401
415
423
415
385
363
361
361
364
364
370
387
385
368
369
372
370
363
660
362
350
350
356
362
376
393
414
416
418
392
358
345
341
340
336
330
347
369
341
326
323
323
277
565
475
326
324
331
345
354
377
397
414
428
421
390
366
358
357
353
351
344
353
366
345
338
339
339
242
659
362
314
308
316
324
335
352
368
377
377
362
330
306
303
305
309
316
332
351
336
330
331
336
284
607
473
322
314
321
335
346
366
389
406
411
405
374
348
343
345
348
349
356
374
365
346
348
351
344
372
656
329
318
310
313
322
334
348
358
358
350
316
280
262
255
251
246
246
247
265
254
236
235
228
222
273
489
221
207
213
222
240
255
279
302
314
318
301
270
263
267
263
273
286
299
321
305
308
311
320
220
660
383
327
322
338
347
364
385
409
418
426
417
383
365
364
371
373
387
410
412
391
388
390
393
269
662
465
375
373
382
395
408
432
449
462
467
450
414
392
394
392
397
404
424
428
407
402
400
402
288
662
489
376
372
375
386
401
417
433
448
450
434
399
379
375
376
376
372
375
390
383
363
357
356
352
327
661
340
326
325
331
340
358
378
393
400
403
378
345
332
333
333
331
331
331
333
353
340
329
329
330
284
543
522
312
303
306
314
324
343
359
377
385
383
356
326
319
320
323
322
323
324
322
327
347
337
328
330
330
276
575
492
317
308
314
323
336
350
367
384
393
392
367
338
331
331
330
332
333
334
333
346
353
338
335
336
335
246
660
343
316
313
316
328
338
353
373
378
380
364
331
312
308
308
309
308
313
312
314
338
326
319
317
318
275
508
455
308
300
306
316
328
339
357
368
370
370
342
310
296
298
303
307
310
315
334
346
326
322
325
326
230
660
337
315
311
320
331
348
364
387
402
400
385
353
337
333
336
342
339
343
367
363
340
334
332
332
276
659
335
318
314
326
343
353
375
392
408
409
389
357
343
332
340
340
335
333
340
361
340
328
334
334
274
609
451
333
320
328
339
354
376
395
403
416
408
379
356
354
358
360
366
370
369
384
387
366
359
358
359
252
661
390
343
340
352
367
385
406
428
440
445
430
394
375
369
368
364
361
359
355
357
373
361
347
349
349
295
574
493
322
306
308
314
324
336
352
368
376
367
342
312
302
300
297
297
297
300
303
318
330
314
307
309
311
207
659
328
299
299
307
322
334
351
373
385
390
374
343
320
313
314
317
318
319
318
333
349
332
328
327
328
257
640
415
310
303
311
318
330
346
365
378
384
376
348
319
312
313
318
318
322
323
338
347
332
330
332
333
245
660
399
322
319
327
338
350
365
387
402
409
401
372
347
343
344
345
345
345
347
358
372
357
352
352
352
284
645
468
337
329
337
347
359
376
394
412
418
412
387
357
348
346
351
350
351
351
358
377
364
353
351
350
315
522
540
334
324
329
336
348
358
378
392
397
397
371
337
328
327
327
332
334
344
359
351
330
330
330
319
386
617
320
305
308
314
324
335
350
364
369
364
336
304
288
281
281
279
283
298
300
271
264
257
256
156
640
293
229
223
228
238
249
264
283
298
300
291
258
236
234
238
245
251
271
289
280
274
276
284
272
394
566
292
288
298
312
329
350
374
398
412
412
389
364
358
361
367
370
373
391
406
391
387
389
392
328
660
583
381
379
380
392
407
423
442
457
464
456
425
397
389
391
390
392
395
414
415
393
389
389
389
282
661
405
361
358
362
369
381
394
413
421
425
409
376
354
349
349
348
348
351
369
361
344
343
341
338
305
659
334
317
316
325
336
347
367
383
396
399
377
347
332
331
331
332
337
356
352
333
333
336
335
277
659
335
319
319
328
340
355
371
389
400
402
384
352
339
335
337
339
347
364
359
342
341
343
341
301
658
341
326
326
335
347
362
378
396
408
409
392
361
346
344
345
347
359
374
356
344
344
347
319
506
566
337
328
333
340
352
366
383
397
407
404
377
351
343
343
342
352
366
357
342
341
343
336
379
634
334
320
320
327
337
351
367
383
392
392
370
342
329
327
327
337
351
338
323
324
323
308
412
550
315
302
310
314
324
338
357
371
377
376
352
324
314
313
318
329
350
336
321
322
324
313
391
574
319
307
311
320
330
346
365
383
389
386
364
336
327
327
332
341
368
360
336
334
337
336
335
658
334
320
323
333
347
360
376
394
401
401
380
349
340
341
345
354
378
369
346
343
346
341
351
660
333
326
325
336
348
364
381
400
406
403
379
348
339
340
342
347
369
370
350
344
344
347
236
662
371
330
325
335
347
359
378
398
411
416
400
367
353
350
351
352
351
354
372
367
348
345
346
340
345
659
331
320
325
331
342
356
373
389
400
400
375
345
333
331
331
330
331
330
337
355
338
330
328
331
245
657
415
308
300
304
309
322
335
352
363
366
356
326
300
290
289
285
284
283
281
286
305
288
281
281
277
197
615
341
263
257
263
271
286
296
319
328
338
330
300
276
269
267
271
276
279
289
309
299
291
294
294
244
552
415
296
292
300
312
327
346
367
383
392
388
360
338
330
334
339
343
348
363
377
370
382
337
353
262
661
443
351
345
360
364
376
457
399
406
427
420
388
393
343
359
362
385
352
357
367
362
370
338
340
258
649
453
324
298
307
310
333
331
351
359
362
356
320
291
290
290
286
282
285
282
292
298
285
278
280
288
173
659
305
272
267
275
292
298
318
333
350
364
344
316
299
303
302
311
300
310
316
329
314
319
339
346
311
583
458
296
302
320
333
371
328
395
360
402
430
326
332
412
285
296
360
335
354
352
325
365
345
298
206
659
351
304
340
315
316
353
378
386
376
413
398
366
339
353
339
326
362
361
401
341
351
390
368
262
660
431
339
330
363
361
384
387
400
415
437
424
377
343
346
348
379
417
399
382
388
410
392
421
292
662
392
364
378
392
375
410
405
419
472
420
443
421
371
382
370
399
387
406
429
370
388
385
322
560
611
363
360
351
364
366
387
383
412
456
381
371
358
373
343
391
337
380
368
354
356
361
348
267
636
433
335
296
315
317
331
346
331
348
356
357
298
268
289
294
244
272
266
268
251
225
248
200
136
559
265
190
208
183
203
203
214
218
241
247
228
200
199
195
201
204
227
247
235
233
241
252
214
493
393
257
261
277
289
304
328
346
369
377
375
349
340
337
339
349
372
390
385
372
375
383
339
592
608
370
363
375
376
391
410
433
445
456
450
427
399
400
403
405
410
424
409
401
397
400
333
659
579
378
373
376
392
395
411
424
441
452
438
407
383
379
383
380
397
398
385
380
374
380
282
661
432
371
367
377
383
394
401
416
426
428
413
379
368
370
369
378
389
391
373
370
376
373
363
659
354
344
345
350
355
367
386
398
406
406
381
353
347
346
348
353
368
358
346
343
344
319
491
543
335
327
331
337
349
358
373
390
398
394
365
342
335
331
332
337
355
351
338
336
339
331
399
600
335
323
326
332
340
354
368
385
393
393
368
346
337
336
336
337
335
345
361
347
342
344
345
246
659
376
322
315
322
329
337
346
363
373
376
358
326
302
291
293
288
282
287
301
284
275
269
268
181
582
313
233
223
226
233
243
259
275
282
287
280
251
229
225
227
232
236
256
265
247
248
250
258
154
655
276
248
248
259
271
291
310
330
343
348
332
306
296
295
302
308
316
335
341
328
331
336
335
305
659
342
333
334
346
360
375
396
414
426
433
414
388
378
380
382
385
387
399
417
401
399
401
405
310
662
492
388
381
386
395
404
418
434
442
445
432
398
373
367
363
364
363
361
373
385
369
364
365
365
258
660
370
329
323
322
327
334
348
359
368
367
354
324
306
304
308
307
307
307
318
330
314
310
312
311
212
659
339
300
295
303
313
328
346
365
377
385
378
348
330
326
330
335
337
344
360
364
351
352
357
348
395
623
355
343
343
357
366
380
398
410
422
422
398
371
362
360
361
365
365
379
383
367
359
361
358
264
660
367
335
333
341
350
360
373
388
396
394
374
342
322
318
318
319
323
339
333
310
311
308
301
298
632
296
279
281
285
295
308
326
342
352
352
328
299
290
291
296
300
306
327
328
313
316
320
321
308
654
325
313
319
332
344
360
380
399
413
416
393
368
359
363
364
369
373
391
398
383
383
387
390
303
661
398
374
374
383
391
405
419
436
448
451
435
406
395
390
392
394
392
398
413
402
393
392
393
358
564
611
374
368
368
375
384
397
416
427
434
430
398
372
364
363
363
360
358
362
373
362
354
354
351
314
528
513
335
323
323
335
344
355
370
384
390
384
357
327
318
315
319
322
323
333
349
337
326
326
325
259
596
419
310
303
304
312
321
334
349
360
367
364
339
318
315
324
333
338
343
355
351
329
327
325
322
310
658
321
309
310
322
329
346
365
384
393
398
374
342
335
333
338
336
343
362
352
340
340
345
327
454
614
340
335
338
348
361
374
392
409
415
409
387
360
352
356
355
356
363
380
372
356
356
357
344
379
654
336
324
321
329
335
345
358
370
374
370
342
311
291
286
279
273
266
265
274
257
239
233
229
182
396
356
193
176
175
180
189
196
213
227
234
233
205
180
176
177
182
188
191
206
229
224
225
230
240
191
501
356
256
256
271
290
307
332
353
374
384
385
364
343
339
345
356
367
379
404
409
394
393
401
406
359
662
412
402
400
413
425
437
457
472
479
480
458
426
416
411
413
417
427
446
437
420
420
419
412
457
661
399
394
396
405
412
426
441
456
462
456
432
401
387
385
385
385
390
408
401
382
379
379
372
350
660
351
339
338
341
347
356
371
382
388
382
354
318
301
296
293
289
292
304
297
275
271
270
264
231
608
256
237
237
245
256
269
288
306
316
319
301
274
266
269
274
280
289
309
318
305
307
314
320
221
660
346
318
319
332
345
361
380
401
415
422
408
380
366
368
370
372
375
389
400
388
383
387
388
316
660
514
373
369
374
385
393
408
427
435
443
435
405
381
375
374
376
377
378
390
395
380
375
373
370
271
661
391
344
342
348
352
365
378
392
405
406
390
357
334
326
330
329
326
343
354
335
326
323
326
274
571
442
312
303
307
318
332
347
366
379
383
378
349
327
322
326
328
334
352
364
347
336
339
340
267
651
459
322
318
320
327
343
356
372
385
390
379
348
324
314
318
320
323
341
346
325
322
322
323
218
660
360
308
304
311
321
335
352
372
386
389
375
347
329
327
330
330
337
352
362
346
343
347
349
247
660
388
336
332
340
351
363
380
401
412
416
401
372
352
351
352
353
353
357
376
368
354
354
354
343
376
648
336
324
325
330
340
350
368
385
391
390
368
340
331
327
329
331
332
340
355
342
333
335
336
269
615
431
318
313
319
329
337
353
371
386
391
385
356
330
327
320
324
321
322
338
345
323
320
319
317
224
658
329
297
297
303
312
325
339
358
368
372
358
325
309
305
308
313
313
329
341
328
323
325
328
253
638
413
318
311
319
329
341
361
376
392
398
391
363
339
336
338
341
343
352
371
363
350
352
358
347
398
646
349
340
343
351
361
375
393
409
418
419
397
370
357
357
358
358
360
369
383
368
363
365
366
316
587
526
348
341
346
351
361
374
392
405
410
404
375
349
339
338
337
334
340
351
345
329
325
325
319
293
632
306
289
286
286
293
303
317
335
342
341
319
286
271
268
266
268
272
287
288
270
271
274
273
210
609
280
257
258
273
280
299
320
336
351
355
335
309
295
298
301
311
322
345
344
328
333
337
340
331
655
350
339
346
354
371
386
406
423
434
436
414
385
376
376
378
382
390
412
408
391
391
394
390
379
661
381
370
371
376
386
399
415
428
435
434
410
379
367
365
365
363
364
373
383
363
356
355
354
267
660
424
330
325
329
336
348
363
380
395
398
389
360
340
334
332
334
334
334
340
358
349
341
342
341
319
464
562
326
315
314
320
328
340
353
366
371
366
340
307
297
291
286
283
282
284
298
284
270
269
266
215
468
368
238
227
232
235
244
257
274
284
290
285
257
224
216
217
217
219
228
250
240
228
230
236
233
307
494
254
241
252
268
284
306
332
354
367
371
354
334
331
339
349
365
392
397
383
381
386
391
291
661
472
388
386
390
405
419
439
460
471
473
458
425
408
406
409
414
425
441
428
418
421
416
369
647
654
390
386
387
390
400
414
430
440
443
430
392
366
359
356
355
357
375
371
349
340
341
338
270
660
325
310
307
312
322
337
354
374
384
383
357
328
320
319
321
322
327
349
341
327
327
330
311
437
607
320
311
314
325
337
352
373
395
405
400
370
347
340
338
337
340
357
370
350
349
354
360
259
661
403
348
344
350
359
375
392
410
421
430
410
379
365
360
360
359
364
381
379
361
357
356
353
317
658
343
329
327
331
335
347
365
386
389
384
365
329
317
316
314
317
317
336
326
312
314
314
291
440
490
301
293
292
304
310
326
347
360
368
366
339
310
303
305
309
313
335
336
319
314
319
320
260
652
324
302
305
309
321
335
350
366
376
372
349
317
304
305
307
312
336
337
317
311
315
316
256
658
318
297
294
300
309
321
341
355
366
364
337
305
297
295
300
307
332
330
311
315
316
306
396
642
311
308
313
323
339
355
381
402
415
408
383
359
360
362
365
372
395
394
376
375
379
350
550
654
367
363
366
379
387
406
425
442
445
432
402
380
373
375
371
372
392
387
367
363
359
349
402
653
338
325
324
327
331
341
357
370
371
359
326
293
285
281
280
277
280
299
290
275
272
274
213
541
364
257
250
259
268
281
300
320
337
346
339
308
289
289
294
295
299
317
333
323
317
324
333
230
660
362
328
326
336
347
358
381
398
413
415
395
361
348
350
348
353
363
382
378
358
359
359
317
577
538
351
346
346
359
369
383
405
419
423
407
376
351
347
346
355
375
392
379
364
364
366
276
661
467
355
351
354
364
374
396
412
424
427
406
370
356
350
351
361
384
384
367
361
358
357
309
661
349
335
333
331
344
356
371
388
393
383
348
316
308
304
303
304
315
324
305
284
276
273
150
660
281
242
237
244
250
266
281
304
315
318
295
264
255
256
254
264
269
281
305
295
290
295
305
192
661
352
303
303
312
328
342
363
385
400
408
392
359
342
342
344
350
350
356
361
385
377
366
366
368
267
661
454
356
351
360
361
378
397
413
426
432
418
387
364
358
359
357
360
358
362
383
371
361
367
368
264
661
404
342
334
345
349
357
374
392
404
401
385
350
325
317
317
319
321
328
346
332
316
314
311
223
642
371
284
272
272
280
292
304
321
330
333
322
286
265
259
264
265
270
295
299
278
275
275
278
226
652
287
270
270
281
296
314
333
356
370
369
345
319
310
312
320
323
336
360
362
350
354
354
334
472
649
352
348
352
364
380
397
424
437
447
445
416
389
381
381
382
382
384
397
403
388
384
384
379
329
661
354
340
334
336
348
360
383
407
409
407
381
350
340
337
340
337
340
343
363
355
341
340
341
305
521
598
311
297
302
314
322
338
365
385
393
393
363
340
332
323
321
326
327
324
349
346
337
337
340
281
591
467
301
289
300
296
313
326
349
363
374
369
336
310
305
300
308
311
322
342
336
324
327
333
263
626
436
322
316
322
336
349
368
386
397
401
390
363
340
331
336
338
345
367
362
331
326
321
310
375
604
303
288
282
289
298
307
321
332
334
326
298
264
247
247
244
254
272
267
236
225
224
210
258
528
211
203
211
224
241
262
288
307
321
321
300
280
278
284
291
298
324
331
318
315
324
324
298
661
331
330
337
350
368
395
417
439
449
452
431
402
397
396
394
401
417
427
415
406
408
413
315
662
417
385
378
381
387
402
410
422
428
426
402
371
347
344
338
337
343
356
343
329
325
318
251
617
394
298
290
289
300
311
327
347
357
363
356
327
308
306
312
320
340
350
334
320
314
318
223
661
404
321
317
324
339
353
377
392
407
411
403
375
365
363
365
370
389
394
373
367
369
370
270
662
383
359
354
362
368
388
404
419
429
430
413
382
370
366
366
371
392
391
371
368
369
363
381
656
353
342
339
341
349
363
376
386
390
383
358
326
316
309
305
304
314
317
296
290
285
281
198
645
262
236
234
241
250
266
290
303
314
320
300
273
263
270
276
277
293
314
307
302
307
318
232
659
406
324
324
335
349
360
380
404
415
417
407
381
362
359
363
360
369
388
385
372
377
373
341
564
548
364
357
363
368
381
397
415
424
430
423
391
366
360
363
360
366
379
384
367
361
356
356
262
660
363
336
331
340
350
363
379
395
402
401
381
353
337
335
339
346
364
366
345
337
338
336
227
660
346
315
311
315
324
335
353
368
376
372
354
320
307
306
306
313
325
337
315
309
310
311
201
660
336
293
295
298
313
323
335
354
362
365
340
305
287
283
284
290
302
326
326
311
310
311
300
386
593
312
303
309
322
335
356
379
394
397
394
368
343
338
341
345
352
360
379
385
366
364
363
364
317
661
350
343
343
351
362
377
395
413
421
421
398
371
363
360
359
356
357
359
378
379
358
359
359
344
435
650
337
330
328
336
343
359
379
393
399
394
373
345
336
332
333
331
328
335
349
332
322
324
322
226
658
362
299
293
296
307
319
335
349
362
361
346
316
296
289
287
292
289
293
304
313
289
290
293
291
274
580
299
281
285
294
308
321
339
354
360
367
350
319
307
314
317
320
326
348
357
344
341
342
345
249
659
358
332
335
341
353
367
383
400
408
411
394
369
355
353
356
363
373
395
391
373
370
375
359
423
657
363
351
352
361
372
384
405
412
418
414
383
358
349
350
351
357
374
381
364
353
355
352
242
661
393
327
321
323
333
340
358
372
381
379
356
327
309
306
306
309
318
335
316
304
302
305
218
657
383
292
288
293
303
315
333
356
369
372
359
331
321
326
333
337
353
371
360
351
352
354
282
659
491
343
335
337
345
360
371
390
404
406
392
361
345
338
339
341
337
347
364
350
341
345
341
274
630
442
327
319
325
334
351
363
378
390
399
383
354
332
327
329
331
336
337
354
361
342
334
336
342
234
660
349
319
317
323
333
344
360
377
383
378
360
324
310
305
310
311
312
329
338
324
314
315
319
219
660
385
301
299
303
318
326
348
368
384
387
373
343
329
329
334
338
347
348
358
378
371
361
365
368
322
600
597
356
352
355
366
373
391
410
423
430
422
393
370
363
363
362
366
367
368
372
390
381
372
369
368
333
531
606
352
343
348
355
365
375
392
403
410
403
377
348
339
336
339
336
341
338
352
371
352
341
340
338
269
631
425
317
308
308
316
326
338
350
363
359
342
310
284
270
269
267
268
271
275
296
273
261
257
254
179
560
323
232
227
231
245
257
276
293
308
310
304
275
260
256
264
270
279
291
322
325
314
314
321
322
309
659
335
328
337
351
366
387
413
433
444
443
421
395
391
396
399
406
408
418
444
435
424
429
427
410
508
661
404
404
404
413
421
435
451
466
469
464
430
401
388
386
387
386
382
378
382
399
392
374
369
368
353
419
656
344
333
335
343
349
363
379
395
404
398
372
345
330
329
331
331
333
334
333
332
336
355
356
341
339
340
326
399
640
330
321
322
329
339
351
371
388
396
397
375
345
332
331
331
332
332
335
334
339
360
356
345
344
345
329
413
632
333
325
328
335
347
361
380
396
405
400
376
351
339
335
339
340
342
346
344
346
361
366
349
348
347
353
285
660
344
326
327
332
338
350
368
383
392
397
379
349
333
330
329
326
330
322
324
327
344
337
318
317
318
304
364
575
313
300
308
316
322
338
347
361
369
369
344
319
303
310
305
314
319
327
347
363
351
342
347
349
269
648
449
327
321
328
342
352
369
384
395
395
386
359
336
329
332
333
345
346
362
376
354
344
342
347
256
660
455
332
329
331
344
354
374
390
408
408
397
366
343
340
345
347
350
355
371
378
362
355
360
358
263
661
455
337
330
335
345
357
374
398
405
411
397
365
346
341
342
343
345
343
346
365
362
349
348
348
346
337
660
342
338
332
339
346
363
380
391
396
395
361
329
320
312
309
310
310
312
318
337
336
315
317
316
304
345
604
307
297
293
308
317
330
349
364
370
369
344
314
304
305
312
313
317
330
348
336
322
322
324
303
425
593
314
302
306
314
322
334
351
360
364
351
320
289
277
271
270
268
263
267
277
262
243
234
232
203
340
431
200
183
184
189
197
212
232
247
257
248
223
198
194
198
206
215
221
232
247
274
270
271
281
296
259
501
523
315
315
328
344
365
385
416
437
449
449
427
404
403
408
415
421
425
432
435
438
459
462
449
447
444
440
418
662
454
431
431
435
442
453
463
479
489
490
468
439
423
420
422
418
419
418
412
424
430
418
408
409
409
318
661
520
383
374
379
388
394
410
425
442
441
426
398
368
362
365
363
373
372
379
399
389
373
369
367
352
378
651
348
330
336
338
355
361
379
394
396
388
364
339
325
323
324
322
326
336
355
339
324
329
326
298
484
568
318
309
309
321
334
349
370
384
390
381
349
323
317
317
320
328
327
341
360
345
340
340
341
285
595
510
328
319
328
333
344
362
382
397
405
396
367
342
340
344
343
348
349
353
367
377
362
359
363
363
260
661
402
341
337
340
346
358
374
392
400
402
388
358
337
331
330
330
330
330
331
339
357
342
335
336
336
276
594
459
318
311
314
321
329
340
358
370
377
368
337
311
305
299
302
303
300
300
309
316
306
292
291
293
213
611
348
271
268
273
278
291
306
326
336
341
329
301
276
273
276
279
285
285
294
316
314
295
298
299
299
297
611
310
291
300
308
324
341
360
377
386
388
366
337
327
329
334
341
344
356
373
363
355
356
356
342
432
648
346
340
340
347
360
372
392
407
411
406
372
344
334
332
331
333
331
340
353
339
327
327
322
291
479
523
304
295
296
299
311
324
342
357
362
355
328
302
298
298
299
302
304
309
324
338
326
325
327
330
247
659
416
329
325
332
345
358
372
395
411
419
409
376
359
355
360
360
361
362
363
372
392
386
376
377
378
356
478
629
366
358
364
372
377
392
407
421
421
423
390
361
344
340
345
346
342
347
360
366
344
341
341
340
236
660
372
323
319
327
338
348
366
384
392
394
378
347
327
322
326
331
335
337
359
356
342
338
341
342
245
662
348
323
321
328
337
353
372
393
403
404
382
349
337
335
334
340
340
346
367
365
349
346
351
350
266
661
354
333
334
340
353
366
388
406
414
418
394
362
350
351
348
351
353
351
365
374
361
356
355
357
280
659
461
337
329
331
337
347
359
376
385
386
375
341
313
305
302
298
299
294
293
305
307
291
284
282
281
172
657
298
256
249
255
262
273
291
307
323
327
311
283
266
265
267
273
274
279
284
288
310
307
304
303
308
300
371
570
313
304
312
321
331
349
372
389
400
399
380
353
343
341
350
353
358
366
382
387
371
369
372
375
291
661
383
363
360
372
381
395
417
432
439
440
421
392
376
375
380
381
384
390
408
398
383
386
384
368
459
657
370
363
361
370
376
393
408
424
429
421
393
360
351
349
345
347
343
349
358
340
329
320
315
291
425
525
282
270
268
272
281
288
304
316
321
314
284
254
245
246
241
249
249
262
276
275
259
261
268
264
280
571
275
269
276
290
302
325
349
371
385
389
372
347
337
344
354
359
373
397
407
386
392
399
405
305
661
497
410
405
411
421
438
450
472
483
480
466
432
415
406
409
409
412
424
429
412
402
404
400
331
660
567
376
371
372
375
383
395
409
417
420
406
371
349
344
344
344
342
345
356
357
339
339
334
332
232
660
354
297
299
301
307
322
335
355
367
370
356
324
306
302
299
300
303
305
313
336
327
316
315
315
290
470
499
311
303
313
323
336
350
370
388
396
397
373
348
336
338
342
342
344
350
367
346
338
332
334
309
497
544
321
323
321
330
346
362
386
407
413
414
384
362
353
353
350
345
342
349
368
350
342
338
343
307
513
516
330
320
327
336
337
359
382
393
409
405
376
352
343
342
347
350
358
361
380
383
368
370
371
370
286
660
375
354
352
357
365
376
394
411
421
422
407
377
359
356
352
354
356
351
356
373
365
352
352
353
345
395
636
340
330
332
340
345
361
375
394
398
400
380
349
339
338
336
340
339
338
352
363
350
344
344
342
276
629
438
329
323
330
338
348
364
382
394
398
393
365
342
337
335
336
335
335
335
343
360
345
339
338
336
288
555
463
319
312
319
327
337
347
367
380
383
379
352
325
313
313
315
314
315
316
332
342
327
323
320
320
232
654
357
304
302
310
316
329
346
363
372
377
365
336
313
305
306
303
303
302
303
316
318
300
292
291
288
190
654
296
264
263
269
276
288
303
319
331
338
322
296
279
276
280
283
288
292
299
320
323
312
317
325
328
289
656
341
329
335
347
360
377
398
417
431
437
423
397
383
384
384
390
393
393
401
422
409
403
404
403
382
512
648
391
387
389
395
404
408
426
441
449
447
424
389
381
376
378
376
378
374
382
398
381
369
364
365
316
564
483
334
317
320
323
326
342
351
358
353
353
308
280
274
268
268
259
269
279
293
282
270
273
276
245
476
428
288
289
294
305
322
343
362
373
382
385
356
333
326
325
327
330
338
355
342
331
332
329
320
397
620
325
319
317
326
338
356
377
395
404
399
372
343
333
338
341
349
355
375
387
376
371
374
378
294
661
467
368
363
371
379
388
403
421
431
437
420
389
366
361
356
354
351
354
367
372
351
348
346
346
253
659
359
329
326
331
338
349
364
377
388
389
373
340
321
313
311
316
314
329
346
339
324
323
324
313
348
608
320
310
311
320
332
346
367
380
390
387
370
339
331
332
333
338
342
359
370
351
345
349
349
274
659
457
338
336
342
350
364
378
398
409
414
403
372
349
341
342
345
347
351
370
362
345
342
343
340
266
659
325
309
303
306
317
326
345
361
372
370
352
322
308
307
309
311
310
317
334
336
323
322
325
328
226
660
349
315
313
321
331
347
363
383
398
401
385
355
337
336
338
341
342
345
357
376
362
356
357
358
301
611
502
345
339
343
352
365
379
396
411
417
411
383
359
349
348
349
351
349
360
373
359
352
352
354
313
551
522
337
328
331
338
350
364
380
394
402
394
368
342
335
331
332
333
334
347
357
337
334
335
335
260
639
404
318
312
319
325
338
354
372
385
391
385
353
332
325
325
325
328
330
344
346
329
325
326
327
226
659
343
306
301
304
313
325
339
356
365
370
356
326
305
302
298
298
298
311
321
308
299
301
302
277
455
450
294
288
291
298
309
324
344
357
365
367
338
311
301
304
307
307
324
339
333
320
323
326
314
406
552
322
312
313
325
335
352
370
384
390
390
364
336
328
331
331
337
358
371
353
345
343
349
305
554
529
333
328
332
342
349
366
385
400
406
400
371
346
342
342
343
349
368
369
352
345
344
345
250
660
404
326
321
322
330
341
358
376
387
391
374
340
322
319
317
315
318
331
331
313
306
306
307
205
659
331
292
290
297
305
321
338
357
369
375
357
328
311
307
312
310
317
334
340
324
320
326
328
233
659
339
315
309
320
331
343
363
379
388
389
377
340
328
320
321
325
332
351
350
329
332
329
330
287
655
333
316
319
328
338
357
377
393
404
402
381
353
343
342
347
349
367
384
367
355
356
359
306
624
526
347
343
346
355
368
384
402
419
426
416
383
363
357
360
359
366
382
387
369
364
366
367
264
661
395
350
347
350
358
368
385
400
407
401
376
349
350
359
362
360
354
360
358
333
321
319
324
226
660
373
328
321
324
326
336
351
369
382
388
374
345
331
330
334
337
336
336
347
362
343
340
342
341
245
660
383
323
315
317
326
338
353
371
382
386
373
340
319
313
311
312
312
314
329
332
313
307
307
306
236
651
307
283
282
291
298
313
331
350
359
361
341
314
297
295
292
294
296
310
320
303
295
301
301
207
658
347
290
287
296
307
321
340
361
375
383
369
343
326
326
333
336
340
353
370
367
357
354
357
335
445
627
336
328
330
338
348
366
388
405
416
411
383
356
352
351
352
350
348
360
369
353
346
347
346
249
661
387
325
321
327
336
347
366
382
395
402
386
357
340
337
338
339
342
355
362
344
337
337
338
239
660
372
326
320
326
334
347
363
382
392
397
379
348
332
330
328
327
328
344
345
330
322
324
324
261
655
323
300
298
303
313
327
347
363
377
378
355
327
316
318
318
319
324
343
349
332
331
333
336
266
659
346
323
323
331
341
357
377
395
407
411
391
363
350
349
350
352
353
363
378
369
359
361
363
322
559
522
355
348
352
358
369
384
401
417
423
420
391
368
361
362
363
366
367
380
384
371
368
367
363
316
658
355
342
342
346
356
366
377
393
404
402
376
347
334
328
329
331
340
359
356
336
335
335
328
342
587
330
319
320
329
335
350
369
383
394
394
375
349
338
336
342
343
364
375
364
359
359
364
279
660
442
346
340
344
353
363
378
394
407
408
396
365
345
341
340
339
343
356
352
332
330
332
325
333
640
325
309
309
316
327
340
355
370
380
380
357
331
323
324
324
326
339
349
333
327
330
330
235
659
366
316
314
320
327
337
353
372
385
391
376
348
335
332
331
332
340
353
344
331
333
335
296
529
481
326
318
324
330
340
353
372
384
396
383
361
335
329
330
326
341
349
330
321
321
321
241
647
366
307
306
309
320
334
348
359
372
373
364
330
316
316
320
321
342
343
321
319
319
313
272
647
320
302
306
306
318
335
352
369
369
366
344
314
305
308
317
332
351
344
323
323
328
288
502
513
308
300
304
312
322
346
362
380
389
382
361
341
338
343
347
362
382
364
349
349
351
318
567
533
370
359
362
369
374
393
434
413
431
417
417
372
374
374
356
369
378
373
335
337
327
337
244
657
320
306
307
319
320
339
361
374
375
378
354
329
323
314
317
319
320
344
344
313
311
315
302
381
587
301
290
292
305
308
324
342
356
361
359
334
307
305
304
311
317
342
340
319
317
319
325
288
657
322
307
302
311
318
334
340
359
364
363
338
311
307
309
315
322
339
354
335
324
329
333
239
660
377
318
317
320
327
341
360
380
388
399
382
353
340
337
344
345
343
353
372
363
347
350
355
303
611
481
346
340
345
352
364
377
394
408
413
405
374
354
352
351
355
354
353
358
373
372
355
356
354
336
467
572
343
338
340
343
350
364
386
398
407
402
374
345
342
336
335
334
335
340
360
359
338
337
334
313
425
535
321
309
306
309
320
326
338
350
349
339
308
275
262
259
252
253
252
262
272
247
228
224
219
113
575
238
184
176
179
187
195
207
220
230
232
217
188
176
176
183
196
204
238
246
233
231
240
250
140
658
285
259
258
273
288
317
342
367
383
390
375
356
346
351
359
363
377
403
404
385
385
388
392
411
661
392
393
401
410
423
434
455
469
474
468
437
408
403
403
409
417
437
453
439
430
434
431
356
662
640
418
416
421
426
440
452
471
479
483
467
431
413
407
402
400
398
407
412
391
380
377
375
261
662
390
327
316
317
317
325
335
349
357
355
331
297
279
272
268
264
265
279
287
270
266
276
272
164
659
283
263
260
262
277
283
305
320
321
324
309
282
268
272
277
281
302
324
307
303
309
315
245
642
394
323
319
327
342
355
374
392
406
416
411
383
366
366
368
371
378
399
388
370
370
370
340
529
637
354
350
354
365
375
389
407
419
425
422
396
373
370
369
368
370
391
389
368
363
362
359
317
661
345
339
338
343
348
358
374
389
397
395
375
352
343
342
338
339
355
361
338
329
330
326
241
660
318
303
301
305
312
323
336
350
359
362
345
322
310
307
307
307
324
328
307
301
303
303
233
652
301
285
286
295
307
323
336
347
354
358
344
312
301
297
297
293
311
321
297
295
297
305
217
644
317
291
290
306
312
327
340
353
365
368
348
322
311
312
317
327
346
347
328
331
331
320
416
561
340
331
337
349
364
380
395
412
418
419
392
370
363
366
376
400
402
383
376
380
380
292
661
390
363
367
374
384
396
412
425
430
432
409
382
371
369
371
385
399
387
373
373
372
316
638
512
356
349
353
362
373
388
403
413
418
403
374
355
351
353
357
374
375
355
350
350
346
279
659
334
314
311
313
321
329
342
352
356
346
315
284
272
266
260
257
267
274
251
241
238
236
133
614
245
209
206
213
224
238
256
276
289
294
277
251
247
250
258
265
274
295
313
302
304
311
319
246
658
336
323
331
344
358
375
398
418
433
437
416
390
383
385
389
395
407
421
414
403
405
407
345
659
552
393
390
397
407
416
433
447
464
469
454
426
405
401
404
407
420
425
409
404
402
396
384
659
384
372
371
377
381
389
407
415
420
409
376
346
335
335
335
350
358
338
325
322
322
218
660
345
293
291
296
302
313
325
340
347
344
329
302
287
287
292
306
330
334
309
304
301
301
275
639
298
284
286
293
304
322
342
360
369
362
336
312
306
308
312
335
349
338
323
326
327
252
659
406
326
322
330
341
355
370
392
403
408
388
360
345
342
346
349
366
384
373
359
360
366
307
654
497
354
350
355
364
374
387
407
419
424
411
378
360
357
358
358
358
359
374
375
355
343
336
329
282
659
311
288
277
277
281
282
297
310
315
305
274
242
231
228
225
223
225
237
256
246
234
232
239
146
598
286
216
212
213
222
236
253
283
297
304
296
269
261
259
271
283
300
333
341
321
327
335
331
317
659
343
338
342
351
363
378
398
413
420
415
392
372
366
373
380
390
421
422
404
398
395
398
275
662
451
387
383
388
399
410
433
451
462
462
437
405
394
392
393
398
408
428
420
397
397
394
366
550
656
372
367
369
375
388
402
425
436
438
429
393
367
359
358
357
357
361
380
381
356
353
351
348
287
660
339
327
321
327
336
349
369
384
394
388
363
334
326
323
327
331
331
337
351
360
340
339
339
338
245
661
341
321
318
324
333
347
368
388
394
395
372
341
325
325
324
323
323
323
329
347
339
322
320
318
274
516
519
297
287
291
298
307
319
338
352
358
342
312
287
276
279
279
281
281
285
291
308
293
281
279
278
181
650
317
258
256
259
270
286
303
323
334
339
326
297
278
276
279
289
286
298
320
323
309
304
308
306
212
659
329
309
310
320
333
354
370
390
400
404
387
358
343
345
351
353
360
371
393
367
346
337
318
226
648
367
273
267
276
276
281
304
327
338
347
333
309
288
279
279
294
289
310
334
327
326
319
329
309
500
583
325
331
336
358
374
401
420
436
455
446
418
401
393
397
400
401
409
419
433
413
406
407
407
308
662
498
382
386
388
396
411
424
436
448
447
430
395
381
373
369
370
364
372
372
363
366
374
366
348
350
348
300
591
520
331
323
324
335
353
363
384
401
398
396
359
336
326
319
317
317
311
315
332
319
289
276
280
258
379
520
254
238
241
236
241
246
270
289
301
290
264
236
236
233
232
230
247
252
265
255
252
260
261
189
655
318
269
265
272
287
311
334
358
380
386
375
348
329
330
334
334
339
357
374
358
348
353
356
275
660
440
345
339
351
357
369
384
395
403
404
391
361
342
345
349
352
365
390
390
368
371
379
385
291
662
411
384
386
397
412
421
440
450
460
456
436
415
403
406
413
417
430
445
426
410
408
404
359
643
638
382
379
385
396
402
419
431
444
445
430
401
375
374
372
380
385
413
410
379
374
370
367
288
661
360
347
344
352
359
371
387
399
403
405
376
349
335
334
336
337
347
367
357
339
339
337
328
385
642
320
310
312
316
322
339
352
369
370
365
333
304
293
295
292
297
308
321
300
292
292
294
218
623
364
285
279
286
300
309
326
348
364
367
354
326
308
305
310
313
317
329
344
327
321
323
326
247
660
392
323
318
326
333
351
366
385
400
401
387
356
338
335
335
334
339
360
366
340
340
340
337
244
660
360
323
316
324
333
347
356
376
382
382
364
331
311
313
312
314
341
340
320
314
317
321
223
660
348
309
305
315
328
344
365
380
388
393
378
347
340
339
343
351
372
382
359
351
349
353
244
661
389
339
328
333
343
356
372
389
399
401
379
348
334
327
331
335
356
362
338
330
328
331
231
661
391
316
311
319
331
344
363
380
391
392
379
346
336
334
334
336
341
363
365
342
335
336
338
231
661
335
317
313
323
331
344
362
378
385
382
361
331
320
320
315
316
319
339
342
314
308
309
306
199
661
306
285
284
294
302
319
334
353
361
365
345
316
309
309
309
310
315
327
346
328
315
318
322
258
614
474
307
300
305
320
331
347
367
381
387
384
354
337
335
336
337
340
344
347
374
361
348
349
351
313
547
601
338
333
341
351
365
381
400
414
422
415
391
370
367
366
367
368
368
370
386
402
377
372
371
372
254
662
417
355
353
362
372
381
396
413
424
428
412
384
366
364
361
362
362
361
359
360
369
390
364
354
352
353
229
662
371
332
326
336
345
354
366
379
390
395
388
359
344
339
337
337
340
340
340
342
349
369
348
336
334
333
241
660
415
317
309
319
329
339
353
369
379
385
378
353
334
329
327
327
329
329
328
331
348
361
335
327
329
328
210
661
329
307
304
311
321
334
347
362
372
377
365
340
328
326
324
325
327
328
328
332
355
352
332
332
330
312
442
596
326
317
324
338
351
364
381
390
392
390
366
336
326
328
330
330
335
336
349
368
350
338
336
338
263
657
437
327
320
326
334
344
359
375
385
390
386
362
343
342
345
345
344
344
352
368
348
335
336
336
268
644
449
325
314
317
332
345
362
378
389
396
392
369
349
346
343
342
339
342
350
344
318
315
315
308
276
623
312
293
291
297
305
317
330
343
349
350
325
293
277
273
271
269
264
278
279
255
249
245
248
174
561
252
223
213
223
235
247
261
268
275
273
250
225
209
208
213
218
240
259
252
234
244
249
210
471
385
260
266
271
290
310
333
359
381
392
387
370
356
357
370
372
386
408
396
375
375
379
381
428
660
398
398
405
417
430
446
470
491
501
500
473
453
450
449
451
450
459
465
443
428
426
427
364
659
581
408
399
397
408
415
431
443
457
453
436
399
380
365
363
363
356
361
382
372
354
354
354
352
340
646
340
327
325
337
341
355
369
385
392
391
367
342
330
329
333
332
348
367
356
359
334
339
334
338
655
324
309
311
313
324
336
353
367
371
361
335
307
299
293
301
303
320
326
307
293
295
298
224
650
367
291
283
288
298
310
332
350
362
369
354
322
307
304
307
308
316
335
346
333
325
332
333
265
646
433
319
308
316
323
336
356
377
391
392
377
349
327
323
328
331
333
334
348
368
350
348
346
349
289
643
483
341
334
339
349
360
377
392
405
407
393
357
336
328
326
326
323
325
328
342
354
333
328
328
327
226
660
354
306
301
307
316
330
343
360
371
373
354
322
302
306
306
316
311
319
323
326
349
351
336
337
336
329
403
627
335
324
329
342
355
369
391
409
422
411
393
362
350
350
352
355
352
357
354
356
379
381
358
357
362
353
370
658
343
334
336
344
347
364
377
394
396
398
373
341
332
327
334
338
341
352
376
368
351
350
356
356
304
662
360
352
350
362
370
389
404
421
427
422
394
363
354
352
349
352
354
364
382
368
352
354
353
336
421
640
329
320
321
329
339
350
367
380
387
379
351
323
316
317
316
319
321
324
340
339
324
321
322
321
246
658
325
309
307
316
325
336
352
369
381
380
360
326
316
314
311
310
312
318
336
327
314
311
307
304
297
596
295
280
279
284
293
299
313
326
336
326
299
266
254
252
254
257
263
281
287
268
260
260
261
178
622
320
261
256
272
287
305
325
345
361
366
354
328
311
312
320
324
337
363
370
357
350
354
361
262
661
436
354
349
361
375
383
401
418
427
432
412
378
365
364
363
368
375
397
398
375
375
376
379
272
662
410
364
359
368
377
391
409
425
433
434
412
381
370
367
369
374
381
400
402
377
378
375
374
323
661
365
353
354
359
369
387
403
417
426
422
394
363
356
357
356
362
383
381
358
358
356
358
261
662
361
335
332
341
350
364
378
395
406
403
381
352
341
341
343
347
366
369
348
343
340
340
237
660
357
306
299
305
312
317
327
340
348
348
331
300
285
283
276
270
267
276
282
257
248
252
255
166
650
303
264
260
271
281
294
309
331
346
355
342
319
302
301
304
310
313
322
345
337
329
330
333
327
403
588
342
328
340
350
360
375
395
408
416
415
388
360
354
356
356
361
365
379
397
379
368
368
370
318
625
530
357
349
358
366
378
392
407
418
419
412
381
352
349
345
347
354
370
374
349
341
343
341
247
660
393
311
302
303
312
314
319
320
337
332
309
279
258
248
270
271
270
308
309
290
300
299
304
192
660
350
312
309
336
343
372
405
433
450
450
440
414
405
410
401
418
407
420
422
386
382
378
371
294
661
430
378
378
401
412
426
442
455
471
459
440
399
370
368
379
385
398
411
427
407
390
372
367
322
524
484
326
316
325
335
348
361
376
384
384
368
338
309
305
297
307
306
310
328
326
294
293
290
285
222
639
283
266
271
278
287
295
303
316
320
314
293
259
244
237
243
238
245
261
259
235
238
243
240
209
578
245
231
232
244
255
267
287
302
314
315
294
272
270
275
286
289
298
316
335
324
319
322
327
293
542
476
334
330
341
356
369
391
408
426
435
432
409
388
386
389
393
399
403
405
420
428
408
405
404
400
312
661
443
385
383
390
402
407
422
432
441
442
429
396
373
369
368
367
369
366
368
383
367
349
341
335
318
355
571
312
293
301
307
313
322
338
351
352
352
328
302
285
289
296
296
299
317
322
300
289
288
275
220
520
368
251
242
253
264
279
298
315
337
340
341
323
311
311
321
326
330
342
362
354
323
316
311
300
283
654
301
289
291
302
312
326
349
364
374
375
349
324
317
321
324
324
330
346
354
335
332
336
342
238
661
394
334
335
345
357
373
388
406
414
421
405
373
360
360
366
366
369
377
397
391
372
369
371
365
292
661
389
333
353
368
383
393
405
419
431
429
404
377
358
356
357
356
362
366
385
375
363
363
357
347
359
629
320
305
304
309
317
325
335
343
350
339
302
272
256
249
243
246
248
262
261
234
228
226
226
116
632
242
210
210
222
230
248
266
282
298
300
291
260
254
258
270
275
293
327
328
312
312
318
329
242
662
352
342
348
363
379
402
428
447
457
457
434
405
398
398
406
411
428
448
435
416
418
420
407
517
662
396
396
399
410
418
434
450
463
467
458
425
396
390
388
390
389
398
419
416
392
386
388
387
284
662
395
361
360
370
381
393
410
428
436
436
413
380
367
364
362
360
360
358
358
375
368
348
344
339
329
335
655
313
299
299
306
314
323
338
351
357
358
329
300
285
285
283
282
279
274
273
296
290
282
280
277
259
278
555
245
233
244
261
278
304
324
351
366
365
333
314
307
317
319
321
327
332
344
364
366
355
356
367
363
403
657
367
362
364
374
389
401
425
442
446
444
418
377
366
361
358
358
354
353
371
373
348
337
336
330
229
660
357
299
295
294
304
311
331
346
354
353
335
301
280
275
274
280
283
294
318
311
289
291
292
295
235
658
303
289
296
307
323
343
368
386
403
397
375
349
344
341
348
355
366
392
396
377
371
375
379
275
661
460
372
370
379
390
406
426
442
453
454
436
399
384
378
383
381
388
389
409
408
385
384
388
388
286
662
413
372
370
377
388
401
419
434
446
443
420
385
369
371
369
368
368
372
387
387
366
359
357
356
248
662
383
327
319
325
334
342
354
369
377
380
359
324
306
300
296
293
288
288
301
305
283
277
274
276
179
643
305
253
253
256
267
275
295
314
323
331
315
280
263
259
265
267
273
287
305
298
286
286
291
286
328
594
295
288
294
308
320
340
361
382
386
384
357
325
316
315
320
327
343
366
358
341
342
345
343
362
658
337
334
338
350
368
383
401
418
425
420
386
365
356
360
363
368
382
404
390
372
376
372
369
396
661
357
353
356
369
381
397
417
428
437
429
399
370
361
358
362
360
367
387
385
365
361
362
364
258
661
372
342
338
349
355
370
386
405
417
414
392
360
346
348
350
351
352
364
377
358
347
348
348
298
577
522
327
320
326
334
344
359
380
394
399
387
353
330
324
324
322
322
326
336
343
322
317
318
316
220
659
349
291
286
289
295
307
322
339
351
356
337
307
284
285
284
288
287
296
314
313
301
299
300
302
209
658
315
290
290
301
313
325
341
361
373
376
355
323
312
308
309
317
321
342
349
329
318
317
318
247
639
413
306
304
307
319
328
344
367
377
381
365
334
318
313
317
319
329
346
354
337
325
330
332
247
660
429
319
313
320
332
343
362
383
395
397
385
353
335
333
336
338
346
366
373
357
351
354
354
266
662
457
339
336
340
353
366
383
404
418
423
405
368
352
351
350
350
348
355
375
370
352
353
351
353
274
661
347
329
331
339
347
361
377
397
407
406
379
349
338
336
337
340
341
343
360
365
347
342
343
342
237
660
369
324
319
328
339
348
365
385
399
402
383
351
335
335
336
335
338
340
343
362
360
348
343
345
343
289
658
337
320
319
324
332
340
357
372
378
372
342
303
284
277
271
268
267
263
267
279
254
242
234
232
167
487
304
198
192
190
199
210
222
241
255
260
250
221
201
199
204
213
224
236
268
274
256
260
271
279
178
659
314
290
302
313
334
356
381
405
420
429
411
387
377
380
391
395
407
428
442
427
418
423
423
370
661
656
409
410
416
427
438
454
473
486
490
476
443
419
415
416
418
417
419
433
443
423
416
414
412
344
660
605
384
379
381
390
398
410
427
441
442
430
397
373
367
366
365
365
366
376
390
375
364
363
362
326
531
569
342
334
337
345
355
369
387
401
407
398
368
342
334
331
335
331
331
334
349
346
328
322
316
312
217
658
302
274
272
273
274
283
293
308
311
310
283
245
224
215
211
210
209
208
228
229
206
204
206
207
107
602
231
200
203
216
232
248
274
297
314
324
313
285
275
281
290
300
311
325
354
349
337
342
351
349
356
659
360
357
362
376
392
409
428
446
453
453
422
396
384
383
391
392
404
425
424
402
404
403
401
332
662
405
388
390
402
412
426
443
462
467
465
439
404
393
388
387
389
398
420
407
381
376
376
371
295
661
357
350
349
355
364
375
391
401
402
400
375
346
333
326
332
336
356
366
350
332
326
331
275
608
501
311
304
305
314
319
332
351
360
364
352
321
307
311
317
329
348
368
349
333
333
330
300
505
625
317
311
319
331
346
363
384
395
398
390
361
341
340
346
348
354
375
375
344
332
329
324
205
661
344
292
280
284
293
303
313
328
331
329
305
273
256
257
252
250
255
274
272
247
237
239
240
118
660
257
234
232
247
261
286
310
335
354
362
351
323
317
325
330
341
351
368
397
396
382
386
393
388
431
662
390
388
394
402
413
427
447
464
469
463
436
406
395
391
389
388
386
391
409
402
384
381
380
376
357
660
362
354
353
360
370
385
401
420
427
423
397
367
355
352
352
350
352
350
352
365
374
354
348
347
350
256
660
349
327
328
335
343
356
372
387
397
400
380
346
329
325
323
324
323
323
326
342
340
324
322
322
320
265
655
318
299
301
309
320
332
353
371
381
382
359
327
316
316
316
320
323
327
340
354
339
330
336
336
273
610
438
327
320
330
338
348
365
385
399
402
392
360
333
327
326
326
330
327
348
357
344
337
335
339
303
520
502
326
314
324
328
341
358
378
391
396
391
364
339
332
332
337
338
352
371
364
340
340
341
333
360
656
333
326
331
340
351
371
386
403
408
402
376
347
336
334
334
338
348
367
355
332
338
318
319
368
651
318
309
306
312
330
338
354
370
369
363
335
300
293
294
291
289
301
332
321
309
296
298
305
198
660
304
286
287
296
295
321
336
353
359
357
336
310
290
289
293
297
295
299
321
321
306
307
311
316
228
661
342
323
325
340
354
371
395
415
428
431
410
379
365
362
366
369
371
393
400
380
373
375
378
282
662
494
370
370
378
388
398
419
432
442
441
423
387
368
364
366
367
369
379
397
381
366
364
363
338
482
633
336
324
327
336
345
356
377
392
396
387
353
327
318
320
319
318
326
344
335
318
316
316
311
346
633
310
298
299
309
320
336
355
372
380
375
347
322
314
319
320
324
336
354
342
331
326
331
315
402
602
318
304
308
315
325
337
356
369
375
367
338
311
302
304
303
303
308
326
324
307
305
308
311
213
659
315
289
290
298
309
323
341
361
372
374
355
324
311
310
313
315
319
337
347
332
326
332
332
266
633
437
324
320
328
340
351
370
389
403
407
397
366
346
344
345
349
351
357
374
379
361
360
360
360
259
661
392
346
344
350
360
372
390
408
418
420
400
369
350
348
349
353
353
356
375
376
357
352
352
351
255
660
354
326
322
329
335
345
358
374
380
380
358
325
308
303
300
297
294
301
313
296
286
286
290
259
413
455
265
251
260
265
275
284
306
316
325
315
291
264
257
251
260
265
273
296
284
267
262
265
260
255
561
267
257
261
281
291
312
333
348
361
361
339
309
304
306
314
326
353
364
344
336
336
341
283
635
507
344
344
347
363
376
399
418
431
434
422
396
374
372
375
378
388
415
408
380
383
380
377
336
662
367
359
358
368
378
395
415
431
435
433
405
374
362
363
360
368
388
393
367
360
356
361
270
661
471
344
339
347
362
372
389
409
415
417
399
367
349
348
348
348
362
379
362
345
343
337
325
417
643
325
317
320
330
342
361
380
389
396
385
351
321
314
309
311
318
339
353
337
329
329
333
262
657
449
332
326
333
346
356
375
399
412
420
408
380
361
354
353
352
354
374
374
348
348
345
351
279
661
350
335
336
341
347
361
375
394
402
399
373
335
326
317
318
327
348
357
336
329
330
339
239
660
352
314
313
315
327
338
357
373
392
399
385
349
342
342
340
347
358
366
347
336
339
350
271
659
422
333
328
336
341
356
365
382
392
392
378
348
336
332
341
346
349
364
379
360
353
352
355
291
653
468
337
330
338
348
355
374
388
399
404
394
359
338
334
333
336
338
358
362
338
334
329
331
226
660
343
296
287
286
290
295
306
317
319
314
292
254
235
228
223
219
226
242
223
200
192
184
176
215
460
168
153
154
165
173
191
205
221
230
225
205
181
183
185
193
206
230
246
229
232
239
245
168
633
315
265
264
280
298
319
342
368
385
393
385
359
349
353
359
368
380
406
409
393
394
402
407
312
662
439
405
407
416
428
440
460
479
488
492
476
444
433
434
433
436
439
458
459
436
436
437
438
344
662
453
415
415
418
425
437
452
465
472
472
451
421
404
401
398
399
401
414
420
395
394
389
391
287
661
424
361
355
354
366
373
382
397
401
395
376
342
323
313
314
313
315
333
325
298
291
289
286
188
656
283
257
259
267
275
284
301
311
315
313
292
261
255
254
259
267
286
297
278
268
273
274
204
611
360
271
267
276
289
303
322
340
355
362
355
327
317
316
320
327
340
363
353
337
337
340
330
410
657
335
329
338
348
361
374
392
408
417
416
391
373
373
372
373
378
400
406
384
377
376
382
288
661
490
369
365
371
382
395
412
428
439
441
428
396
382
376
373
376
377
399
401
378
370
372
370
269
661
380
342
338
343
348
355
365
376
383
379
356
324
305
300
297
300
301
311
318
297
290
287
284
211
577
348
263
256
264
269
279
291
308
320
325
318
285
268
265
267
270
274
283
300
299
284
285
290
283
329
553
297
284
295
308
322
337
358
376
384
386
364
341
337
340
344
349
361
384
384
367
365
370
370
304
661
373
360
359
371
380
393
413
428
437
433
413
381
373
373
373
376
382
398
405
384
380
380
382
282
661
437
365
363
371
377
388
404
420
431
432
414
380
366
360
363
362
365
363
373
390
373
366
364
363
306
620
503
346
338
343
350
359
372
386
404
407
396
364
339
330
334
336
339
336
349
366
351
342
340
344
322
492
575
341
331
335
343
351
365
383
397
400
393
366
342
337
336
338
341
344
351
373
365
346
344
345
338
311
660
327
320
320
326
336
349
366
384
391
390
367
342
332
333
333
336
336
342
364
359
341
339
339
343
242
662
344
324
322
330
339
354
371
388
394
395
379
349
333
333
330
332
331
334
343
365
354
340
342
338
318
451
559
329
315
320
330
337
351
363
377
384
380
355
328
316
317
319
318
318
317
325
344
328
317
317
314
267
526
433
296
291
291
301
310
321
338
350
354
350
319
298
289
288
289
293
295
300
317
324
304
300
303
306
206
658
329
292
293
301
316
326
345
359
370
373
359
332
316
314
317
317
323
331
352
354
332
333
334
331
229
660
346
317
312
316
325
334
349
364
370
367
349
316
297
295
299
296
295
304
319
306
287
283
278
268
276
575
261
245
242
252
261
273
289
301
309
303
275
246
239
240
245
252
263
281
297
283
281
288
290
232
578
389
292
290
297
314
330
350
370
389
399
391
366
353
351
357
365
371
376
392
409
397
390
394
397
364
577
635
384
382
388
399
409
423
440
455
461
455
427
401
396
397
401
401
404
413
430
418
406
408
404
388
495
655
385
377
385
391
401
406
427
441
445
435
411
380
369
370
368
371
371
383
394
381
373
369
368
335
524
552
354
343
354
357
373
382
395
409
410
405
375
350
341
341
343
347
354
377
376
353
349
349
347
264
660
352
332
333
337
348
362
376
389
396
393
370
339
327
326
328
336
341
363
360
340
337
337
339
231
661
355
322
321
329
339
352
370
384
394
394
373
344
328
330
332
333
332
347
367
350
341
341
341
325
433
624
330
321
323
331
346
358
376
389
394
391
364
337
330
330
332
334
339
360
363
344
342
343
344
251
661
403
325
320
326
334
350
363
380
393
395
382
352
336
331
335
335
336
342
361
366
345
343
344
342
243
660
370
326
322
330
340
352
368
386
396
401
386
357
340
338
342
345
346
347
360
376
363
353
355
353
324
497
564
338
331
336
346
354
368
383
395
403
396
372
342
336
337
336
339
342
355
368
350
345
343
345
304
525
488
330
320
324
334
345
359
374
386
396
384
358
333
327
327
328
332
341
360
354
335
333
335
335
266
658
345
327
328
332
340
354
365
380
383
379
355
324
302
300
302
310
311
325
312
293
287
277
263
280
542
239
217
217
220
231
243
263
277
280
274
242
216
205
205
203
213
228
227
206
202
207
212
100
637
243
197
193
200
218
233
263
291
308
319
305
279
270
273
284
293
314
336
327
320
325
331
314
453
613
327
325
332
351
368
391
415
433
440
431
405
386
385
389
398
409
425
445
431
419
423
421
381
630
655
398
401
405
416
426
438
460
471
477
467
431
407
396
397
398
394
413
428
419
400
397
394
387
398
660
379
369
377
380
390
405
420
433
437
431
403
371
356
355
355
360
379
385
372
358
357
358
335
494
617
346
335
340
346
359
373
391
404
408
400
369
341
333
331
333
341
357
368
345
334
333
336
296
541
525
324
315
320
329
340
356
376
389
394
389
357
332
327
328
330
331
342
363
357
338
338
338
342
277
660
338
327
322
334
346
359
378
396
406
404
383
352
338
338
338
338
345
357
362
342
332
330
329
258
624
423
301
290
293
297
305
319
334
340
343
323
291
265
254
253
248
245
242
251
260
235
227
229
222
166
477
317
205
195
207
212
227
243
266
281
291
283
255
232
230
235
242
247
255
274
288
272
270
277
277
209
599
352
276
277
284
299
317
332
358
370
380
372
343
329
322
325
334
338
354
380
369
354
359
359
356
362
660
358
354
357
367
380
396
415
434
441
437
412
385
376
377
378
382
388
412
411
393
389
392
393
287
662
452
378
372
378
392
403
420
438
449
453
435
400
385
381
381
383
385
389
407
400
384
380
381
377
348
660
362
352
351
361
365
378
392
410
413
408
382
349
336
333
330
328
328
331
341
322
307
305
304
249
526
412
275
261
260
267
273
286
302
312
319
308
277
254
249
251
254
255
269
283
270
260
263
265
253
372
483
273
265
267
284
305
317
341
356
369
361
335
327
304
314
315
329
346
346
333
327
336
335
244
660
350
327
327
334
346
360
383
395
415
411
393
364
351
348
357
363
391
394
372
367
374
376
269
662
405
359
356
363
376
389
403
424
429
426
399
371
355
352
356
359
380
379
357
351
348
348
244
661
356
328
327
331
346
357
381
395
403
406
378
349
340
339
340
345
367
372
353
351
351
355
263
662
449
346
338
345
353
370
386
407
420
425
409
380
359
364
364
373
373
375
395
391
376
374
373
369
317
661
358
344
343
348
356
372
391
406
418
419
390
360
349
349
349
350
352
351
355
375
360
348
347
348
301
548
532
335
325
333
336
350
374
380
393
397
392
362
339
333
