327
329
333
339
341
358
371
354
349
346
349
351
324
628
353
338
339
348
358
369
385
401
410
404
373
347
338
342
342
349
357
375
380
362
358
356
360
350
414
588
357
351
352
361
368
380
401
416
420
412
377
351
346
350
353
357
362
380
388
370
362
364
367
359
411
588
362
357
361
367
375
388
409
423
430
422
391
369
364
369
375
377
382
390
408
413
398
398
400
402
368
574
532
396
391
397
403
412
425
444
455
459
446
412
390
385
386
386
385
385
388
403
405
384
380
379
376
351
504
499
360
352
353
356
360
370
387
399
402
391
360
334
329
327
331
333
332
345
360
342
335
334
336
335
265
645
342
326
328
335
340
350
367
383
391
387
362
333
324
327
331
336
338
361
367
353
346
348
347
335
426
507
347
341
350
350
357
369
392
400
408
399
366
346
342
342
344
360
378
368
355
355
355
356
298
632
403
356
348
357
364
372
390
407
414
416
395
359
344
345
349
356
378
385
364
357
360
359
358
332
643
360
352
353
360
367
378
398
413
418
414
383
355
348
351
356
357
367
388
376
365
364
367
367
292
660
397
359
359
367
370
380
395
416
425
428
408
376
365
367
371
374
379
383
403
413
395
393
397
398
376
540
558
398
396
403
411
421
435
454
470
476
469
441
421
417
418
423
424
427
431
451
447
433
427
425
422
353
661
452
396
389
392
395
401
412
426
438
438
420
383
367
362
359
360
359
357
374
381
362
351
353
347
334
415
513
340
332
334
337
344
356
374
389
391
387
351
323
320
316
319
326
333
354
346
326
314
324
318
256
607
369
326
322
326
338
358
374
391
408
421
405
369
359
358
367
371
382
407
396
378
377
381
379
301
661
431
372
364
377
383
397
408
431
439
443
417
375
358
352
349
348
357
380
367
348
346
352
344
278
646
395
322
316
317
323
333
348
369
385
391
372
339
331
336
356
362
386
374
451
431
394
405
409
413
363
662
406
394
396
399
397
406
422
433
433
426
393
354
335
330
325
314
319
326
343
343
333
336
338
334
255
656
350
323
325
340
350
368
388
406
409
374
376
350
287
307
316
322
331
340
351
386
383
375
381
385
386
305
661
425
379
405
381
352
377
400
416
419
422
401
358
344
339
341
346
339
339
360
364
347
341
342
343
343
402
586
327
351
342
351
355
365
386
404
414
413
380
354
349
354
359
362
365
390
378
364
360
365
361
292
660
421
361
358
361
372
383
398
418
430
430
412
380
366
367
370
375
376
382
399
405
387
384
387
387
375
467
604
384
381
382
390
399
412
426
440
447
433
407
380
379
379
381
386
384
383
387
405
394
378
375
377
374
293
660
390
362
359
365
371
375
395
410
420
425
400
368
350
345
349
352
352
353
365
383
364
357
356
359
358
290
658
360
347
347
353
361
373
390
410
416
414
388
355
344
346
349
355
358
364
388
382
369
370
373
376
314
654
446
371
366
373
381
390
404
425
434
440
422
388
372
371
373
375
378
378
385
401
393
381
378
380
380
310
656
422
366
362
367
370
376
389
405
415
419
403
371
350
349
353
354
355
354
357
375
377
361
359
359
360
334
499
484
355
347
352
355
361
374
392
403
409
401
372
348
343
348
349
352
349
349
349
355
373
368
353
350
349
349
275
647
363
337
339
342
347
356
371
388
395
400
380
351
339
334
332
335
331
333
341
360
356
346
346
347
352
306
581
419
355
355
363
369
376
389
406
421
423
415
385
367
366
372
376
375
378
378
385
407
394
385
388
391
387
316
659
396
377
378
382
387
398
412
427
435
436
415
382
370
365
367
368
372
372
386
399
382
373
374
375
372
321
653
377
369
367
372
378
388
405
421
428
426
402
372
362
363
363
368
369
374
388
400
382
378
378
381
379
386
618
384
380
381
390
396
405
422
437
446
443
417
390
384
383
385
387
389
402
415
401
392
390
393
395
319
659
407
384
384
388
393
397
412
427
436
435
412
381
368
365
364
366
365
376
390
374
362
364
367
365
296
653
368
351
357
357
363
371
387
406
410
409
384
354
337
339
343
346
365
367
349
344
345
342
336
351
573
342
332
332
336
341
354
375
390
392
388
356
330
325
327
330
343
361
355
339
338
340
342
311
520
448
342
336
342
351
360
376
397
408
412
400
369
348
351
354
358
364
385
390
371
369
370
374
365
416
594
372
367
371
377
386
398
416
428
435
427
399
376
372
372
375
378
377
384
402
400
383
383
384
384
333
614
452
376
374
379
386
394
405
422
432
437
424
392
375
371
373
375
374
374
381
396
401
384
382
383
384
367
489
524
378
373
375
381
385
394
409
422
426
416
390
364
355
355
361
355
360
361
365
383
378
361
360
362
362
287
646
384
347
347
350
355
365
383
400
405
409
392
360
341
342
346
347
351
352
360
381
371
356
353
354
353
281
656
386
347
344
349
356
367
382
399
411
411
395
362
343
343
344
347
350
360
380
369
353
353
353
354
277
656
396
345
340
348
353
363
378
394
403
405
386
353
339
337
340
346
347
358
379
371
360
360
361
365
298
643
414
359
355
361
369
378
393
412
423
426
411
379
363
363
368
369
372
376
394
401
384
380
382
384
376
419
603
378
372
377
384
388
401
420
434
438
435
406
381
375
378
381
384
390
404
420
406
399
404
404
404
339
661
413
400
403
410
417
427
445
459
467
468
442
413
399
402
404
407
413
429
441
416
412
409
408
407
342
661
403
390
385
393
399
406
419
433
437
433
403
376
357
360
357
359
364
385
379
354
350
351
350
304
557
433
336
327
331
339
345
356
375
387
387
374
341
323
319
320
329
339
359
359
344
340
342
344
325
472
499
346
341
347
356
364
377
398
411
418
406
375
356
353
356
361
365
381
394
375
372
370
370
369
315
655
373
361
362
368
372
382
400
415
422
420
393
362
357
358
362
363
364
374
394
378
367
368
369
367
293
658
381
362
363
368
375
384
397
413
423
422
401
370
359
360
364
365
363
369
376
391
383
370
372
368
371
298
658
389
358
356
359
367
371
389
407
413
420
399
366
351
348
351
354
358
364
388
381
362
361
360
359
305
625
424
354
349
353
362
371
387
403
416
419
402
369
354
348
355
354
361
378
391
369
365
365
365
364
332
652
365
352
354
358
369
378
395
413
421
415
384
359
353
355
360
365
368
385
400
383
375
375
380
378
317
660
383
371
372
380
384
396
412
431
438
435
410
384
374
377
379
383
384
386
394
413
407
393
391
393
391
321
660
424
381
379
384
388
395
409
424
433
436
419
387
369
369
370
374
373
372
373
376
388
394
374
369
368
366
325
556
447
358
353
354
360
363
374
391
403
406
396
366
343
340
342
345
347
347
350
359
378
362
356
356
357
357
304
647
368
356
357
365
376
385
402
419
430
436
416
390
384
388
394
397
402
409
429
433
416
416
419
422
400
547
573
416
412
414
418
424
437
448
461
463
449
415
391
386
385
384
386
383
386
399
405
382
375
373
373
357
457
520
365
358
361
366
373
383
400
411
417
410
377
351
344
344
347
345
346
350
353
372
363
351
347
346
342
263
641
355
324
324
329
333
341
354
369
378
379
362
332
318
318
322
328
330
332
333
344
359
344
335
335
336
338
296
615
345
336
337
344
350
357
373
391
400
399
376
349
342
345
349
353
353
356
367
386
373
364
365
367
369
297
657
386
363
363
368
373
380
395
408
419
422
398
367
357
352
357
363
366
367
378
396
388
379
377
379
381
311
658
406
380
380
386
393
398
415
428
440
442
423
387
374
370
377
378
380
391
412
403
386
384
383
384
327
644
444
372
369
373
380
388
403
422
433
434
422
383
366
365
365
369
375
392
405
384
374
370
372
372
286
660
376
356
356
365
368
378
391
407
415
413
386
351
340
341
343
348
356
376
376
357
355
356
356
340
450
521
351
344
350
357
364
378
397
411
418
413
381
361
361
366
375
380
384
401
416
402
398
401
404
405
383
658
404
398
399
406
413
424
441
458
464
460
435
407
401
402
405
406
403
404
417
414
393
387
384
382
349
539
489
373
366
370
373
376
383
397
406
407
398
362
339
335
335
336
336
337
348
364
345
342
336
343
340
274
639
348
332
333
339
345
355
375
389
397
395
371
337
327
326
333
331
337
359
365
348
342
342
343
343
295
653
347
338
340
347
358
369
387
405
412
414
390
361
352
356
365
371
394
416
405
395
402
407
408
333
662
466
406
406
410
419
427
444
465
475
478
454
417
401
398
401
403
411
428
425
402
394
392
390
370
484
579
372
361
362
365
372
382
395
411
412
403
367
338
335
335
337
342
348
370
364
347
345
348
347
308
549
441
339
335
341
347
354
367
384
397
400
389
356
336
334
337
342
343
346
350
371
364
350
352
355
359
288
655
397
356
357
363
371
381
397
417
431
438
425
393
379
378
384
387
389
392
401
420
421
407
406
408
409
367
613
505
400
395
401
404
411
422
437
447
448
435
402
376
370
369
368
369
366
373
388
372
362
360
359
357
282
654
359
341
342
345
348
359
370
384
394
394
371
340
329
329
333
335
342
358
364
349
344
343
346
342
344
567
346
337
339
346
353
364
379
401
402
396
367
341
336
337
335
343
359
360
346
343
346
346
337
412
511
346
344
348
356
363
378
399
416
426
420
387
369
365
366
375
399
414
397
387
390
395
392
316
661
419
394
390
399
405
419
434
454
457
458
433
398
386
383
386
405
417
404
383
381
382
379
304
661
416
360
356
360
365
372
386
402
410
412
389
354
335
336
338
349
371
365
348
345
346
345
309
542
449
338
335
338
345
353
368
385
398
403
389
354
337
337
343
348
352
365
384
367
361
363
366
368
312
659
371
363
367
375
383
395
411
428
436
436
411
384
379
383
388
390
393
395
412
427
411
407
408
408
401
458
627
401
396
399
404
410
419
434
447
452
447
415
388
381
379
380
384
381
380
387
404
394
375
376
375
373
291
658
378
356
353
359
363
363
379
398
407
406
384
351
335
334
334
336
335
338
347
369
352
340
340
340
342
267
649
352
335
336
344
351
361
381
399
408
408
388
354
342
347
352
360
365
374
397
404
381
381
380
383
335
598
479
378
371
377
384
389
406
421
434
434
419
383
364
358
361
364
366
372
389
396
378
369
373
373
362
429
587
362
354
359
364
367
378
398
411
417
409
375
349
348
348
350
353
353
358
379
378
363
360
359
361
312
579
438
350
348
351
358
366
378
398
411
412
400
368
348
344
348
352
354
356
363
377
390
375
369
371
371
364
399
587
367
359
364
369
378
389
405
419
426
421
391
364
359
359
362
365
366
367
375
392
397
378
376
378
379
333
583
456
370
365
371
378
384
397
414
425
429
419
386
366
362
364
365
365
366
368
383
400
385
378
380
381
380
329
654
382
370
375
382
389
400
413
427
436
436
412
381
370
370
373
376
375
375
381
396
406
386
380
381
379
361
453
528
366
356
360
364
367
377
393
404
409
402
371
344
330
332
333
337
336
337
355
365
346
341
342
340
336
369
538
341
334
338
347
354
363
385
401
412
404
376
345
335
337
342
349
351
363
383
378
363
364
366
368
292
659
396
363
363
369
379
386
406
426
439
446
423
390
375
375
380
382
387
393
414
416
398
394
396
396
372
519
559
385
380
386
394
401
414
430
445
449
439
406
381
377
379
382
385
388
395
414
404
392
391
391
390
305
661
397
369
366
371
376
380
394
411
419
417
395
360
345
344
347
348
347
346
348
366
370
350
347
348
349
312
526
436
340
334
340
346
353
366
383
397
405
395
363
341
340
343
346
350
354
356
363
383
380
365
365
365
368
301
639
403
360
360
366
370
381
394
414
428
431
416
379
358
354
356
356
357
360
371
390
373
364
364
363
368
295
656
378
360
359
366
375
384
400
418
426
425
403
368
352
349
355
359
360
366
386
391
370
369
369
373
349
505
543
372
366
371
376
384
399
416
431
438
432
396
368
362
365
372
372
379
400
404
384
377
378
376
368
392
627
366
357
362
369
374
385
401
417
422
416
383
356
349
351
351
355
356
359
375
384
368
362
365
365
356
406
584
362
356
359
366
372
385
401
416
423
417
387
358
351
351
356
357
359
362
369
389
386
372
372
372
371
310
635
421
365
362
368
375
382
398
414
427
432
420
385
366
365
368
369
373
375
377
379
392
407
390
384
384
383
379
387
617
377
370
372
377
383
391
408
424
428
427
399
368
355
356
359
360
362
363
369
382
392
375
370
372
370
356
443
539
363
357
365
370
373
384
402
422
424
417
388
355
348
347
354
358
360
368
388
393
371
367
369
368
350
491
545
366
358
362
368
382
390
410
426
430
417
382
353
345
348
349
354
356
377
383
362
356
356
356
354
330
645
353
345
348
352
360
371
387
403
409
407
376
347
338
342
346
348
352
358
378
379
363
363
365
364
332
546
480
359
356
360
368
378
391
410
423
430
419
385
362
358
359
364
366
366
369
387
397
381
376
378
380
373
402
613
373
366
372
378
386
396
412
427
432
429
399
369
361
362
362
363
364
363
371
390
388
374
373
375
375
324
608
440
369
366
370
375
385
396
411
423
427
415
381
360
353
355
358
358
359
365
377
388
372
366
366
369
366
367
605
369
362
366
371
375
388
405
423
430
429
399
363
352
356
358
364
368
377
394
403
384
380
379
379
377
394
636
379
369
374
378
384
397
416
429
439
434
403
368
360
360
361
364
369
380
398
382
371
370
370
371
286
662
394
360
359
364
373
379
392
413
422
421
397
360
341
340
343
346
349
351
367
380
363
355
353
354
351
300
655
352
340
340
346
353
366
382
398
407
402
377
343
334
334
339
343
347
350
354
365
384
369
363
363
367
366
314
658
368
359
360
366
372
385
404
419
427
428
404
371
359
362
366
370
372
374
378
385
405
403
393
394
399
399
339
658
466
395
393
402
408
419
433
450
463
466
455
420
398
394
396
399
398
399
400
407
425
418
408
403
405
402
328
660
428
388
385
390
393
399
412
431
441
440
422
383
360
357
355
361
361
363
378
393
375
363
362
362
362
280
659
372
350
350
353
362
373
388
406
417
414
391
356
338
337
340
345
349
369
381
363
355
353
356
355
272
660
368
347
349
354
361
371
388
408
417
420
393
356
345
345
350
356
361
374
391
380
371
373
375
373
293
661
403
365
365
369
377
387
402
421
429
432
410
374
357
357
359
363
365
369
380
400
385
379
378
380
380
298
661
392
369
369
375
381
388
403
421
429
431
410
375
359
357
358
359
358
358
367
386
375
365
365
364
362
286
658
384
354
353
358
363
369
384
402
413
415
395
362
345
341
343
348
350
353
373
386
368
364
363
366
367
336
632
373
362
364
369
377
386
405
421
430
426
399
365
355
356
359
362
373
391
394
372
370
372
371
360
424
593
369
360
365
373
379
391
410
426
433
424
392
363
357
354
361
366
384
395
377
367
365
367
367
284
661
373
358
355
363
368
379
394
411
419
419
389
354
344
344
349
351
362
381
374
359
357
361
361
307
610
436
355
353
357
364
371
388
404
418
423
407
372
355
355
356
361
360
366
383
388
371
368
370
371
359
433
572
367
362
365
372
379
389
408
424
431
425
392
366
362
363
368
369
370
371
383
400
382
375
374
375
371
346
638
372
361
362
368
378
385
403
418
429
425
399
367
355
356
360
362
367
369
383
399
380
374
373
378
377
322
657
379
366
366
372
378
386
405
422
428
427
403
369
354
356
354
362
368
380
396
381
370
371
372
372
294
660
380
362
362
367
375
385
401
419
427
427
400
364
353
354
354
358
363
376
390
374
366
363
367
367
288
660
369
352
353
358
366
374
390
404
413
412
385
353
342
342
345
348
348
350
358
378
368
358
358
359
360
280
659
376
355
356
360
365
375
391
409
420
424
404
372
358
358
362
365
366
368
374
390
395
376
373
375
378
348
537
490
374
371
374
381
388
399
417
429
436
429
397
371
364
369
369
370
371
371
383
400
385
378
378
377
380
315
655
382
373
376
376
383
393
408
423
429
430
407
373
358
355
358
358
364
369
392
385
367
366
360
366
303
655
413
363
362
366
375
386
407
425
443
445
433
399
377
378
380
385
392
417
418
403
398
399
404
400
410
659
399
394
395
404
409
422
440
455
459
455
421
391
384
382
383
385
398
411
394
379
375
372
370
292
659
399
352
350
355
358
367
386
396
407
410
394
355
341
337
343
345
345
350
369
369
352
350
352
356
316
545
454
346
339
343
349
355
364
383
396
403
394
360
335
333
333
338
343
343
345
361
377
363
355
354
359
359
342
632
360
349
352
359
366
380
395
412
421
423
396
366
361
365
367
369
370
372
390
387
372
373
378
376
336
581
460
371
365
367
373
378
389
406
422
427
416
381
357
354
356
360
360
363
378
385
367
363
363
365
360
363
604
362
353
353
360
365
376
394
412
419
417
390
360
356
358
356
361
366
387
380
368
367
370
374
326
597
436
367
360
366
374
379
393
413
427
431
419
384
366
361
361
366
378
396
388
376
375
378
386
343
609
468
389
389
394
403
407
426
447
458
464
453
416
397
393
392
398
422
426
409
395
389
392
390
306
662
397
374
368
375
377
387
401
415
421
422
393
359
341
341
342
351
372
370
349
345
344
346
335
403
557
341
330
334
342
350
360
381
394
404
397
363
334
333
332
335
340
347
368
370
353
350
353
354
327
507
483
347
343
346
354
362
375
392
407
412
406
375
351
349
352
356
354
357
362
366
383
390
376
374
377
380
335
600
463
373
371
377
383
391
403
419
432
438
429
396
372
367
369
374
374
374
382
397
398
382
383
381
381
350
543
481
371
367
369
378
384
393
413
427
431
423
390
363
362
362
364
364
367
384
393
376
372
374
377
378
333
657
387
381
379
383
394
401
419
433
441
443
419
387
378
378
383
389
396
417
413
391
391
391
389
360
578
533
395
389
393
397
401
414
429
438
444
430
396
368
363
367
370
372
390
398
377
369
367
368
363
331
637
358
343
345
352
358
366
381
397
405
399
371
341
333
336
337
339
342
359
368
348
344
345
346
342
330
610
345
338
341
348
356
368
384
399
406
402
375
346
339
342
348
351
351
355
371
380
362
359
358
360
352
404
554
357
350
353
359
368
378
395
410
419
415
385
359
351
349
353
355
355
358
358
374
385
372
359
361
365
362
372
595
368
361
365
373
379
390
408
427
434
432
406
378
363
366
366
368
371
372
374
394
399
378
369
368
370
341
524
498
357
356
355
365
372
388
406
416
421
414
384
356
352
351
355
358
361
368
391
382
365
365
366
366
289
658
410
357
356
359
367
377
391
411
424
426
410
375
358
357
359
364
366
367
371
379
398
386
376
373
376
375
294
660
386
365
367
372
378
389
402
419
428
431
411
379
366
368
369
371
377
375
377
383
401
399
387
385
387
386
325
639
443
377
375
381
385
392
405
422
434
435
425
393
370
366
368
371
373
377
377
385
400
405
389
388
388
387
359
513
510
377
371
375
378
382
395
411
422
427
421
387
359
356
353
356
357
362
366
382
390
371
367
367
372
364
376
605
368
361
365
368
369
384
398
415
421
418
389
360
348
348
353
359
360
368
387
391
369
368
367
367
358
447
569
367
358
362
369
374
385
404
419
424
422
389
360
353
354
358
362
364
371
392
392
376
372
374
376
344
532
508
372
365
372
378
384
394
412
427
431
421
385
358
354
354
357
361
361
367
382
385
368
363
364
365
336
522
479
357
352
356
363
368
378
393
406
412
403
370
345
341
343
347
350
352
357
375
383
365
362
363
368
359
428
562
368
365
370
377
383
394
412
427
435
430
400
376
371
374
379
386
387
389
398
417
420
404
403
406
408
367
622
514
411
406
411
417
424
436
453
466
472
462
427
404
400
400
402
404
402
403
417
428
411
403
405
402
397
386
642
394
382
380
384
387
396
409
420
424
422
392
357
345
346
347
343
346
343
363
367
346
342
344
339
336
386
534
337
329
331
337
346
357
374
390
397
396
364
333
325
328
329
336
344
367
371
349
349
349
351
341
421
563
352
345
352
357
367
381
402
417
425
420
385
357
351
353
356
358
373
391
385
373
372
375
378
319
638
441
373
372
377
384
391
404
421
432
436
418
384
367
365
368
373
375
386
400
389
381
379
380
379
313
653
423
372
370
374
380
386
397
415
426
431
414
379
363
359
360
364
364
364
377
392
374
367
367
370
369
294
658
378
360
360
365
371
379
392
406
417
421
401
368
355
357
360
362
364
366
381
394
380
372
373
374
373
308
657
382
368
368
373
377
387
401
416
428
427
404
367
357
356
355
359
360
361
372
385
373
365
363
364
366
288
656
380
356
357
360
371
378
392
410
420
421
399
365
346
347
344
350
353
363
383
385
364
362
365
365
359
399
609
369
364
367
372
378
383
399
408
411
408
380
354
353
362
371
380
387
402
414
400
391
388
392
390
310
661
402
378
381
384
393
397
410
425
429
431
405
364
348
344
348
346
348
354
370
341
344
343
342
345
266
659
384
356
356
365
375
390
410
432
446
451
436
403
388
387
393
392
395
406
425
421
410
412
416
415
375
601
527
395
387
387
386
391
402
417
428
433
423
390
364
362
363
358
359
365
379
373
358
353
352
352
322
491
445
340
334
338
345
351
360
380
390
398
389
352
322
319
320
324
327
326
350
353
331
333
332
340
333
345
584
347
341
348
353
365
379
388
403
406
400
371
338
327
336
339
347
358
386
390
372
368
374
375
357
486
573
377
368
371
379
386
398
415
432
431
424
390
358
354
353
356
360
378
397
384
370
372
373
374
295
661
417
365
361
367
376
386
399
415
422
423
404
372
357
357
363
371
375
388
407
394
384
383
385
388
300
662
422
374
370
375
383
392
413
420
425
425
404
370
356
360
362
367
374
377
398
388
374
371
371
370
328
592
468
372
367
374
379
386
401
418
428
434
420
388
366
362
363
369
370
377
393
402
382
378
380
381
379
380
632
380
375
379
384
389
400
416
430
439
434
402
372
361
360
362
363
360
368
387
384
368
365
367
366
343
496
481
356
351
351
356
365
376
396
409
413
408
373
347
342
341
347
349
357
381
386
368
360
364
368
367
373
644
376
371
378
387
396
415
435
450
458
452
427
395
389
393
394
398
405
430
434
412
407
407
407
403
374
661
396
390
386
392
397
404
422
435
439
436
401
368
349
351
350
354
352
361
374
372
354
350
352
350
317
521
469
343
336
338
344
353
367
385
401
406
395
361
336
333
336
339
342
343
344
350
371
363
352
352
356
353
283
654
386
342
342
345
357
362
375
397
410
414
399
364
339
339
347
351
345
355
359
371
391
377
366
364
365
363
296
658
366
350
355
357
367
376
395
413
418
421
394
362
347
346
350
353
359
377
395
382
365
365
364
366
276
661
389
349
351
351
360
370
387
409
418
417
396
358
343
343
346
350
361
388
388
367
361
361
366
352
442
631
359
353
357
362
374
387
406
423
427
422
388
360
352
356
358
363
372
398
381
370
370
370
372
310
661
465
369
365
377
385
394
412
435
449
449
414
387
380
366
370
372
369
371
381
386
378
381
388
394
393
336
663
407
397
409
413
411
414
435
451
458
458
432
402
399
409
419
423
429
443
436
412
402
396
393
380
448
654
366
359
358
358
364
380
392
408
410
400
361
332
322
323
325
322
326
336
356
351
332
329
331
328
270
598
411
323
322
330
334
348
363
380
392
397
384
345
324
321
326
333
340
349
373
380
359
358
359
366
349
479
600
372
370
378
391
405
423
448
468
478
477
448
424
424
432
443
453
467
494
494
474
470
473
468
455
565
661
464
471
474
482
491
504
520
532
537
524
486
454
443
438
436
431
431
447
438
415
407
403
400
346
620
478
376
366
368
369
372
383
395
404
405
389
353
329
325
325
327
326
336
352
341
328
328
328
328
253
625
357
317
311
318
322
333
346
363
369
379
356
322
304
304
309
310
312
326
344
322
321
319
329
324
273
607
325
316
314
320
326
339
356
372
379
377
347
316
307
307
309
311
334
346
331
322
317
324
320
242
657
343
320
324
327
341
353
371
390
403
404
385
350
337
340
348
355
381
384
366
360
365
367
366
349
655
371
362
365
373
386
397
418
438
448
445
415
390
386
389
396
403
419
439
424
420
420
425
426
342
662
463
420
420
426
433
443
460
478
486
488
462
428
412
409
410
411
410
421
434
411
403
401
401
397
324
661
392
376
373
377
383
391
402
416
422
418
390
357
344
343
345
348
348
348
358
376
359
350
351
351
348
274
655
352
336
338
342
349
358
373
392
401
403
379
346
335
335
337
341
344
349
356
375
375
361
362
367
368
304
646
411
365
365
370
375
384
402
422
436
439
425
387
368
365
372
373
378
382
403
410
389
386
388
388
376
447
605
379
375
376
381
390
406
419
433
441
429
400
369
357
364
364
367
377
398
390
370
368
369
367
308
635
436
357
348
354
360
369
385
401
416
415
397
362
342
341
344
349
352
369
381
362
352
354
354
355
279
660
359
344
348
351
359
371
386
403
411
412
386
355
347
352
356
360
362
370
392
381
368
370
372
373
302
660
414
364
363
363
367
378
386
407
414
418
400
362
348
344
353
350
355
358
373
391
367
364
361
369
363
344
656
367
357
355
364
369
377
394
414
418
414
386
353
344
342
349
355
361
386
381
362
357
357
358
309
604
466
352
350
356
363
377
391
414
423
429
416
378
356
354
353
360
364
386
390
368
362
364
365
360
361
656
355
350
351
359
369
384
404
420
426
419
391
369
369
374
380
385
391
414
407
391
385
388
390
343
637
566
375
369
373
379
387
404
423
436
443
429
393
375
376
381
386
389
398
421
411
398
396
398
399
318
662
442
391
387
394
402
412
425
443
451
452
430
393
377
375
376
378
377
382
399
382
369
367
366
364
281
659
375
349
347
353
357
365
380
395
402
401
378
343
333
334
338
341
347
366
369
351
350
352
353
319
531
449
351
342
347
355
361
374
390
400
416
398
360
341
343
345
352
366
372
360
353
351
357
356
327
633
360
351
354
364
367
374
394
411
411
410
381
348
344
344
354
379
383
363
357
358
358
355
382
625
361
353
360
367
377
390
408
424
432
420
386
359
359
359
367
388
395
376
371
371
372
365
397
634
370
362
363
371
377
391
411
422
430
421
383
361
358
362
366
369
381
401
384
376
376
378
380
312
660
379
368
369
373
379
388
407
423
430
427
398
367
358
361
366
367
368
371
376
400
384
378
378
379
379
350
652
378
368
370
379
386
394
410
425
433
427
398
370
363
365
366
370
373
371
372
372
389
388
375
371
374
377
294
660
393
368
370
375
385
399
414
441
449
455
435
410
398
401
409
420
427
428
434
450
462
439
431
432
430
411
527
640
410
404
407
411
417
431
448
465
470
456
426
405
402
400
395
390
384
382
393
406
384
373
370
375
368
498
565
375
357
354
359
367
377
392
403
404
391
361
339
331
327
326
326
331
337
353
368
348
342
347
348
336
428
508
350
340
342
347
354
366
381
395
400
389
356
330
324
328
331
334
335
336
349
367
348
341
340
344
333
393
526
348
337
345
348
355
369
384
398
406
394
362
334
330
330
337
339
351
373
378
364
360
363
366
323
572
444
362
360
363
368
375
392
412
423
425
409
371
352
352
355
359
369
388
407
385
376
380
377
379
370
650
377
368
372
379
387
398
415
428
439
430
398
372
369
372
380
385
398
423
417
404
405
413
413
335
663
457
412
410
418
426
439
454
472
480
480
452
418
406
405
407
408
409
411
425
431
412
405
405
405
367
579
523
391
386
389
390
393
405
422
434
435
418
374
353
349
350
351
354
353
354
358
373
382
363
357
355
358
294
620
402
345
337
345
352
359
374
395
410
411
394
356
332
329
334
340
340
346
352
371
380
360
357
355
359
317
554
469
351
343
346
355
365
377
396
410
411
396
357
337
335
334
339
346
347
349
364
385
369
360
359
361
359
352
641
360
350
355
361
371
385
405
422
431
426
394
365
363
366
369
375
380
382
388
401
420
407
402
405
407
402
433
655
406
402
403
413
421
432
449
465
474
466
431
399
393
393
392
393
392
394
393
409
416
397
391
393
391
352
587
491
383
375
378
382
387
402
418
430
435
420
378
353
346
346
349
354
353
358
379
375
358
350
353
353
293
613
415
344
337
341
345
353
367
390
400
405
385
351
328
328
328
340
338
347
369
375
353
352
352
354
323
520
511
353
348
352
361
370
386
405
423
429
417
380
361
359
362
368
371
374
381
402
399
384
382
384
385
320
660
446
376
370
375
382
390
404
422
435
437
418
382
362
361
363
364
364
365
367
371
389
394
377
372
373
373
331
578
476
366
362
366
370
376
389
407
421
426
413
378
355
352
354
358
359
360
363
366
366
375
393
390
379
378
384
385
316
660
400
384
388
394
403
414
441
458
474
476
455
427
413
414
419
426
428
438
440
450
471
465
451
452
453
455
383
663
470
441
444
442
450
455
467
484
487
484
453
414
396
396
392
396
395
393
399
418
411
388
383
380
376
296
660
414
345
344
347
354
359
378
391
402
401
379
339
322
317
318
325
328
331
340
361
362
343
340
341
340
279
610
404
333
329
335
348
359
372
393
406
409
390
353
335
332
335
339
341
341
343
359
369
350
344
347
347
337
387
577
347
337
340
348
351
361
376
391
398
396
363
337
333
335
341
345
348
351
358
378
376
361
360
363
364
294
659
405
362
360
366
372
380
392
411
423
430
410
378
361
360
362
365
368
369
380
400
390
382
383
386
389
315
660
398
381
380
386
391
399
413
428
437
435
412
370
354
349
352
353
347
350
360
368
354
345
341
343
341
267
648
349
327
328
338
346
359
377
399
409
411
391
364
358
344
352
355
360
370
387
383
368
371
376
378
315
658
447
386
386
392
394
403
420
438
451
453
440
406
391
391
399
404
408
421
440
428
417
418
423
426
352
662
474
425
425
429
436
444
459
477
488
491
469
433
420
419
422
424
424
435
440
420
409
406
403
399
348
657
387
375
372
375
375
381
397
407
415
409
376
344
329
330
333
332
339
353
354
335
329
329
327
308
454
454
324
315
323
328
336
351
371
386
388
380
343
319
314
319
321
332
354
364
345
339
339
344
340
280
655
350
334
338
345
353
369
387
404
409
407
376
346
337
339
342
349
357
377
375
358
355
357
355
319
552
470
351
347
354
361
371
384
404
418
423
409
372
354
354
358
363
366
368
373
390
400
383
379
381
382
364
492
560
379
375
378
385
392
406
425
440
445
435
401
375
373
373
375
381
381
383
386
385
395
415
393
388
389
388
372
462
576
376
368
372
375
380
392
405
418
424
417
379
350
343
340
341
346
346
351
353
359
358
364
387
374
368
369
370
371
345
643
371
360
364
368
375
380
400
420
432
432
401
369
359
364
362
368
370
374
379
403
405
381
377
376
379
325
626
487
374
365
373
379
391
403
425
437
440
421
381
358
354
357
362
365
371
396
398
377
369
366
369
351
452
619
362
352
356
361
372
384
405
421
430
416
372
347
345
341
347
354
354
363
388
378
361
363
363
361
282
662
419
355
352
359
365
378
395
414
426
430
406
367
350
350
354
361
362
365
366
371
378
396
396
379
375
376
376
301
662
438
364
361
367
375
383
398
416
430
435
416
377
356
357
358
361
363
368
364
371
374
378
399
382
375
377
378
374
326
660
378
363
368
374
377
392
407
426
435
431
401
367
353
353
356
358
361
367
367
384
399
379
371
372
372
370
344
659
374
359
362
369
376
389
409
426
435
431
398
362
353
353
358
363
369
378
401
396
377
375
375
373
341
557
541
365
361
363
370
380
392
415
429
433
419
379
350
350
351
355
357
361
366
387
389
369
366
367
367
341
501
554
355
349
352
359
364
376
395
409
414
401
365
337
333
335
341
343
347
350
355
374
383
364
360
362
361
352
397
610
356
347
351
358
366
378
395
414
423
417
385
356
348
349
354
355
358
360
362
367
373
394
393
378
377
379
378
317
642
457
371
367
372
378
388
402
422
435
441
428
392
370
366
367
370
374
376
381
382
386
386
394
411
410
394
395
395
396
314
661
424
383
381
386
393
401
414
430
441
445
428
391
369
366
367
369
370
370
372
377
377
383
398
399
383
380
382
380
327
621
454
372
367
372
379
387
400
418
431
436
424
389
364
359
360
361
364
366
367
370
374
378
391
400
383
378
381
379
348
522
508
372
366
371
376
382
396
412
428
433
425
392
364
357
357
359
362
363
365
368
371
385
403
389
383
383
384
383
319
659
388
372
373
382
388
398
414
433
442
444
420
383
367
366
368
369
369
369
372
372
377
391
394
379
375
377
374
327
598
451
372
366
368
374
380
393
412
427
430
420
380
355
348
351
352
356
356
363
365
386
387
369
366
365
365
334
521
495
361
355
361
367
377
390
413
423
433
421
386
359
352
356
360
368
372
380
403
410
390
390
389
391
387
430
650
389
384
390
396
405
419
437
454
463
457
425
395
387
392
392
397
399
401
411
431
417
405
404
404
403
324
661
449
389
383
388
391
399
414
429
441
443
424
386
363
362
362
365
365
365
366
372
387
394
376
371
371
370
352
464
550
364
357
359
364
371
385
400
416
422
415
383
353
347
348
351
353
355
358
360
368
388
384
371
370
370
370
314
627
432
365
361
367
372
380
394
413
425
431
419
377
359
352
354
355
359
360
361
376
393
388
372
373
374
373
316
653
417
367
366
368
376
384
398
417
429
432
417
380
356
353
354
357
359
362
369
389
392
369
364
369
364
355
435
600
363
356
360
371
375
392
412
430
432
429
394
363
351
354
359
361
366
384
397
380
369
365
367
365
273
661
382
349
348
351
357
366
384
399
412
413
385
349
330
328
329
336
337
339
353
371
353
343
343
344
343
256
661
367
331
329
335
341
351
366
384
397
399
380
343
326
328
333
338
340
342
344
350
366
377
363
360
363
365
359
393
627
361
354
356
364
371
384
403
420
430
429
399
366
356
358
360
365
367
370
372
386
402
385
380
378
382
382
319
661
388
373
375
381
387
398
414
431
440
440
416
381
370
370
372
376
375
377
379
382
401
404
389
382
387
385
358
552
510
382
372
377
384
388
404
421
439
447
434
397
369
361
363
362
364
369
369
393
395
377
370
372
367
368
368
644
366
358
362
367
376
389
407
425
431
426
396
362
350
352
356
360
362
380
394
381
369
367
370
368
300
659
426
363
358
364
369
376
390
411
424
431
411
371
347
346
348
353
356
363
383
388
367
364
368
369
367
354
656
369
362
363
368
377
388
406
424
433
430
400
365
355
356
362
362
363
364
374
393
379
370
371
372
373
297
661
412
365
362
366
372
381
395
415
427
432
415
380
358
356
360
362
365
363
364
369
383
396
379
374
374
375
372
348
654
375
365
367
371
378
389
406
425
434
434
408
372
360
360
367
369
368
370
379
398
385
373
372
376
380
310
660
416
371
371
375
381
386
402
424
435
440
422
386
364
362
363
364
367
375
396
388
373
372
375
374
347
519
512
365
360
362
368
375
387
402
419
423
412
376
346
340
340
341
343
347
364
369
350
344
346
347
344
305
645
349
336
337
344
351
363
381
397
408
405
379
345
336
336
341
345
349
366
373
357
352
354
357
357
288
659
367
351
354
359
367
379
395
413
423
422
396
363
351
352
355
358
360
371
389
377
368
368
368
368
307
640
419
366
361
367
373
381
394
409
420
423
408
373
355
356
358
362
365
376
396
386
376
375
378
380
327
627
440
377
376
381
387
394
408
424
438
441
423
386
366
365
367
369
372
382
397
382
373
372
371
370
307
632
409
360
354
358
361
371
382
399
409
409
390
354
332
327
331
332
334
335
349
362
346
338
336
336
336
265
641
345
330
332
340
347
356
375
392
402
407
380
344
330
336
342
351
356
374
384
372
367
368
372
371
367
627
383
377
376
388
397
406
429
443
452
445
413
383
379
375
384
398
419
414
396
391
394
398
374
552
569
392
389
393
399
408
425
442
455
462
450
416
388
379
383
387
416
414
386
381
374
375
377
292
662
374
358
358
365
369
380
398
413
423
420
391
355
345
345
350
370
386
371
357
356
359
360
295
660
431
354
350
359
366
377
393
413
425
425
405
366
349
351
353
359
367
391
394
375
370
373
373
368
415
642
368
362
365
370
379
394
410
426
430
426
389
362
356
357
364
366
368
371
376
400
389
377
376
380
380
300
662
414
368
365
369
376
384
396
413
424
429
411
373
352
353
353
357
357
356
357
363
380
380
364
361
360
359
313
570
442
346
342
346
351
356
368
383
397
403
391
354
329
327
328
332
334
334
337
342
355
370
350
343
345
350
344
362
590
347
345
348
356
363
378
396
414
425
425
398
362
352
354
359
362
365
368
386
404
388
380
379
380
375
306
661
379
366
364
370
378
385
401
418
426
426
398
358
347
348
353
353
354
366
391
383
368
364
364
368
317
595
464
360
356
359
368
375
390
410
423
425
414
376
356
354
357
363
368
371
377
398
406
390
386
390
393
388
424
653
389
386
389
397
403
416
434
451
459
457
427
395
387
389
392
397
397
400
401
415
431
414
406
407
409
405
362
661
397
388
390
396
403
413
431
446
455
454
428
395
382
381
382
383
385
387
389
400
416
400
395
394
394
394
322
660
393
380
379
385
390
398
413
429
439
438
414
380
366
367
367
369
369
368
372
388
394
376
371
374
373
366
391
604
367
359
360
368
376
385
403
420
427
425
392
363
354
353
355
357
359
362
374
388
377
364
365
366
368
289
660
384
357
359
361
366
375
391
413
422
423
400
369
349
341
346
349
355
365
386
384
365
363
366
366
329
569
491
363
360
366
374
383
397
419
432
439
425
388
361
359
362
362
367
381
401
387
373
373
375
374
291
661
410
366
364
368
377
386
402
422
433
434
411
373
350
351
353
359
362
376
394
380
368
367
370
366
286
661
401
358
356
359
367
374
390
408
420
424
402
364
349
350
352
356
355
357
369
384
364
358
357
361
361
286
660
367
351
351
353
362
372
389
406
415
416
388
353
342
344
346
347
350
348
353
368
370
354
351
354
355
337
467
518
351
342
345
351
355
367
387
401
410
404
372
346
342
346
351
355
357
358
364
384
389
373
375
381
386
356
557
515
381
376
381
388
398
411
433
451
455
449
413
381
378
378
383
386
386
393
414
415
396
393
390
389
368
525
542
383
375
380
384
389
403
426
442
443
437
400
370
363
366
368
372
381
405
405
386
380
384
385
375
446
625
375
369
372
379
386
400
420
436
445
437
399
372
363
363
365
368
384
399
388
373
375
376
376
309
660
440
365
361
364
373
382
401
420
433
438
416
380
359
360
362
366
369
378
398
388
373
372
373
374
322
608
464
362
355
358
362
366
380
397
410
414
400
362
344
341
343
345
346
342
350
366
351
341
341
346
347
266
660
376
344
340
346
351
358
372
390
403
408
390
355
340
344
345
349
347
349
352
368
376
360
358
360
362
350
424
556
354
347
351
358
365
376
394
412
419
417
384
357
352
355
356
359
360
365
382
383
367
367
370
375
350
512
518
370
363
367
373
380
394
412
427
433
424
391
369
364
367
372
373
374
378
393
403
383
379
383
381
372
423
588
374
366
365
368
374
384
402
415
425
416
381
354
344
347
348
352
354
369
383
364
358
356
361
361
287
658
374
361
358
364
372
384
398
419
430
431
404
369
357
356
359
366
374
396
405
384
379
380
383
379
355
659
383
373
376
385
394
407
423
441
449
444
412
376
371
373
376
377
391
408
399
388
384
390
391
326
661
461
383
381
384
391
402
417
435
446
449
428
389
371
370
372
375
381
398
405
387
380
381
381
378
363
656
379
372
374
380
386
397
415
431
438
434
400
371
364
368
370
374
386
400
384
375
375
375
374
295
661
390
367
364
369
373
380
393
407
415
414
385
350
338
340
342
344
345
357
367
348
340
338
336
337
295
612
333
317
318
324
327
335
352
368
374
376
344
319
311
310
320
332
348
351
340
335
338
339
329
452
481
345
345
352
358
369
383
408
422
428
419
384
363
361
365
374
401
416
399
393
392
395
399
316
662
417
393
395
402
413
427
447
465
474
475
448
415
409
409
413
434
453
443
428
425
430
427
360
662
550
418
412
418
422
431
447
463
473
474
452
412
394
392
393
397
415
421
402
394
394
392
393
342
661
386
377
375
381
387
398
418
432
437
433
401
370
361
363
366
371
371
386
404
388
380
381
382
379
321
660
375
365
367
373
382
392
408
426
433
431
398
366
356
356
358
361
362
362
377
390
371
365
366
366
362
374
619
362
352
357
364
371
383
400
416
422
422
389
360
354
354
358
360
364
370
390
391
377
373
378
379
336
576
466
371
364
366
377
379
395
412
425
429
417
383
356
351
355
359
365
375
397
385
370
367
369
373
295
660
414
365
360
368
375
387
402
424
435
436
418
379
362
360
362
367
376
397
395
375
370
369
369
342
509
532
359
349
350
358
366
379
395
409
413
402
365
338
337
339
343
349
367
378
358
355
356
357
358
313
658
363
354
354
363
372
386
405
422
431
431
401
370
364
365
369
374
380
403
402
387
386
388
391
360
560
552
385
381
387
394
402
417
435
448
455
443
409
387
383
385
388
391
392
408
422
405
397
396
399
399
374
659
393
385
387
393
401
410
424
438
446
442
412
383
376
375
377
377
380
384
400
405
389
384
385
385
351
551
505
378
373
377
385
390
401
421
434
437
429
393
365
360
362
363
365
371
385
399
382
374
370
372
370
305
659
374
356
359
364
371
379
397
415
419
420
392
359
348
350
353
356
363
382
396
378
370
369
371
370
313
661
371
359
359
367
373
383
401
418
425
424
391
358
347
348
352
357
365
384
391
371
368
370
370
369
370
653
365
359
363
369
379
390
409
423
430
423
387
361
354
355
360
359
364
365
379
394
374
370
373
374
369
370
655
365
359
363
369
377
391
408
425
432
427
395
366
360
359
364
366
367
368
373
397
390
378
376
377
380
307
662
439
375
371
374
386
390
408
426
440
441
422
384
366
364
366
366
369
369
369
382
400
384
376
375
376
375
301
660
377
363
365
371
380
391
406
424
432
431
405
371
357
358
361
363
365
365
367
370
389
387
373
372
372
374
306
648
424
363
359
365
372
380
392
411
426
428
414
378
356
351
354
359
363
361
365
373
389
390
371
371
368
370
336
562
471
368
362
366
372
380
389
410
424
430
412
381
349
345
348
352
355
358
371
394
379
366
363
365
367
289
661
412
363
361
369
378
386
403
421
432
434
412
371
354
353
356
360
363
376
395
381
366
364
364
366
297
657
432
355
349
353
358
371
384
407
419
423
405
367
350
350
352
355
362
362
376
391
374
365
368
367
368
285
661
375
356
356
362
372
384
400
420
430
430
403
370
358
361
365
368
371
373
373
381
400
385
379
379
381
382
297
662
393
372
372
379
386
395
413
432
443
445
420
386
370
370
373
375
378
379
381
395
407
391
386
388
387
386
341
660
381
371
373
380
386
397
413
429
441
440
410
379
367
368
368
367
368
366
368
384
390
372
368
370
367
361
380
605
362
351
354
359
364
375
396
412
421
418
384
356
347
347
350
354
356
360
370
388
380
367
366
371
368
292
660
396
361
360
365
374
384
401
416
429
433
410
372
355
353
357
363
367
369
381
404
385
377
378
379
380
292
662
408
375
377
384
391
398
416
435
446
445
422
381
364
363
368
370
374
386
407
391
378
377
375
378
313
656
459
369
364
371
379
387
402
423
437
440
422
386
365
364
366
372
374
376
382
404
397
380
379
379
382
332
609
492
374
369
371
382
389
403
421
434
438
425
387
366
367
365
369
372
373
373
378
397
392
381
379
380
381
327
625
463
373
366
368
374
382
397
414
427
432
420
382
360
358
360
362
364
366
371
389
387
373
373
377
376
353
508
532
371
367
370
378
382
396
413
426
434
423
389
365
361
364
367
368
369
371
375
394
394
379
378
378
378
345
541
498
372
367
370
376
384
398
412
427
432
422
386
360
357
357
360
361
367
365
379
395
380
370
373
372
377
293
660
383
363
363
369
379
392
407
430
439
439
416
377
361
357
362
364
368
371
382
400
383
373
372
373
373
294
661
392
364
363
368
376
388
405
422
433
436
414
373
358
358
361
364
367
381
400
392
376
376
375
378
334
595
499
372
364
368
377
390
405
424
437
443
427
388
366
363
363
369
373
377
395
404
387
380
380
381
380
317
660
379
369
370
374
384
395
411
428
435
434
402
369
360
360
363
366
368
373
390
391
375
373
375
377
364
441
587
370
365
367
373
381
393
412
425
432
424
388
361
355
359
360
363
366
374
395
386
373
372
377
378
330
608
454
369
365
369
376
386
399
419
431
438
421
386
365
363
364
366
371
380
400
393
384
384
384
388
364
515
528
386
376
380
386
395
406
427
437
443
432
398
371
366
370
372
374
377
391
408
392
382
385
385
384
303
661
406
379
380
384
393
402
418
437
445
445
422
385
367
365
368
372
379
382
405
413
392
386
389
386
389
372
660
384
378
381
387
394
407
427
445
450
448
415
380
371
370
370
378
385
405
407
384
381
382
383
377
418
649
378
371
374
381
390
404
423
437
443
433
396
363
360
359
363
366
371
392
394
378
373
373
374
376
327
660
373
362
363
371
380
393
411
430
438
435
403
371
362
364
368
374
374
380
397
412
394
386
385
386
388
309
662
389
375
378
384
391
403
419
436
445
443
412
378
365
367
369
369
369
374
388
399
382
378
379
381
378
316
660
380
369
369
377
385
394
410
427
434
435
407
375
364
364
366
369
372
370
385
399
384
375
377
376
376
294
660
392
368
369
378
379
390
403
425
433
435
412
377
358
358
363
366
365
371
388
398
378
374
370
375
372
318
657
371
358
363
364
372
379
395
412
419
416
387
351
340
338
340
345
348
361
377
360
349
344
348
347
270
655
387
338
337
340
346
356
373
391
402
406
386
351
331
331
334
338
343
348
366
374
355
350
352
355
351
318
651
354
345
346
355
363
376
393
411
420
421
389
360
352
353
357
360
362
367
386
390
374
372
375
378
361
478
571
373
369
375
380
389
402
422
438
445
437
402
377
373
376
380
381
388
407
406
388
386
389
390
377
465
604
388
380
385
390
398
411
429
443
447
439
404
381
377
379
383
387
400
411
394
388
387
389
390
309
661
397
380
378
384
392
402
417
433
441
442
412
378
367
367
369
372
385
401
382
374
376
376
374
301
660
401
367
365
368
380
384
402
416
429
431
405
372
356
357
357
362
365
383
391
375
368
367
371
371
309
658
380
367
368
372
381
391
408
423
431
431
405
370
357
356
360
364
371
393
395
376
369
372
372
372
353
656
376
365
369
376
384
396
415
430
436
435
403
372
361
361
364
367
374
398
390
374
372
374
373
339
559
511
365
360
364
371
378
392
414
423
430
414
374
353
354
353
359
359
374
390
375
365
365
366
370
286
661
422
361
360
363
370
381
397
416
429
432
410
377
363
364
366
370
374
396
403
385
378
374
373
369
314
658
364
350
350
354
356
366
378
392
399
397
363
329
320
317
320
319
327
341
336
322
319
322
322
289
486
414
313
307
311
317
326
338
359
374
383
370
335
319
319
322
331
335
343
363
368
355
355
359
362
352
458
546
375
371
378
381
394
406
422
439
445
436
403
379
373
378
383
385
396
415
414
394
394
396
394
370
556
584
401
400
405
411
421
433
449
464
466
456
417
394
390
392
394
401
421
427
405
395
396
395
395
324
662
393
381
377
384
392
403
420
435
446
442
408
379
369
372
374
380
386
402
407
387
382
382
382
379
335
660
379
370
370
376
384
398
413
431
439
439
405
373
365
368
373
377
378
383
400
401
382
381
383
384
374
447
618
382
377
378
381
391
401
421
433
437
430
398
373
367
371
375
378
378
384
404
400
384
380
381
381
347
565
500
378
372
375
382
388
412
431
443
446
432
395
374
369
373
375
375
376
384
399
382
373
371
373
374
293
660
388
365
366
370
376
388
403
419
433
431
407
368
360
357
363
365
368
370
388
391
367
363
362
364
344
463
524
363
358
360
363
370
378
394
405
408
397
360
331
323
323
323
323
329
343
340
317
311
311
310
294
389
475
299
293
297
305
310
320
339
351
354
343
306
279
275
279
286
289
298
317
324
310
307
308
312
308
349
531
325
319
327
336
347
362
386
403
412
410
378
354
352
357
363
368
374
381
404
404
389
392
395
399
343
653
460
400
399
401
412
423
439
460
468
476
460
418
397
395
392
399
400
407
427
425
402
397
395
395
361
580
517
388
382
384
390
398
415
429
443
443
431
394
371
369
372
378
378
397
410
397
381
383
382
383
300
661
414
375
376
377
385
394
414
429
440
440
420
383
367
367
368
373
377
399
404
384
381
386
383
385
346
660
386
377
385
384
395
407
422
437
444
434
404
373
361
362
366
369
367
386
401
379
371
369
371
371
286
661
373
355
353
358
367
377
393
410
418
417
390
355
342
346
347
351
354
376
388
367
363
361
364
366
316
660
367
356
360
366
375
388
409
424
431
428
396
363
354
357
361
364
370
388
396
379
373
374
377
375
344
660
373
367
367
374
382
397
415
430
439
436
405
377
367
370
374
376
378
390
410
396
384
388
390
391
306
661
413
376
375
380
387
398
412
425
432
432
407
367
349
346
349
346
344
351
366
370
350
341
338
341
327
347
584
329
314
313
321
327
340
361
373
380
374
340
312
306
309
315
322
331
357
360
343
339
340
342
336
405
612
345
340
343
351
362
380
399
417
428
415
379
352
352
356
359
364
376
403
394
379
379
380
383
324
658
510
378
375
379
390
401
416
436
450
451
436
398
377
380
380
383
390
397
424
420
399
397
400
399
351
640
563
393
387
393
398
411
426
445
456
458
442
391
384
384
374
379
379
380
391
409
393
381
376
379
382
295
662
420
377
377
387
394
405
420
437
445
445
424
385
368
369
370
372
375
377
395
393
371
362
362
360
356
395
621
356
345
348
355
360
375
392
403
412
408
375
343
337
338
342
346
348
357
377
368
354
352
356
357
297
647
405
357
356
358
366
381
392
412
429
431
415
379
360
362
367
366
370
376
394
404
382
380
382
388
383
415
644
396
387
394
400
411
423
442
451
457
451
416
384
376
377
375
377
385
403
393
374
371
374
374
321
622
453
363
357
361
366
376
395
410
423
429
411
374
354
353
358
355
367
387
385
370
368
373
374
354
515
548
373
370
370
378
383
400
417
426
430
418
381
358
352
354
357
374
389
377
365
365
366
369
293
661
412
362
353
359
366
376
388
402
409
409
385
351
336
337
338
346
362
363
345
337
336
335
338
276
658
336
321
322
329
338
351
367
381
389
388
358
331
329
340
346
358
381
398
381
379
381
381
380
356
659
376
372
375
382
392
403
420
433
439
431
400
375
373
379
382
391
393
414
397
390
391
392
395
330
661
439
377
373
382
387
392
412
430
440
443
423
389
372
368
372
376
387
408
411
388
386
382
387
367
506
594
379
371
378
383
389
406
423
435
437
425
385
363
358
363
368
378
399
385
363
359
360
358
279
661
427
353
350
356
365
376
391
410
418
421
398
361
351
357
364
370
383
406
387
372
368
372
371
272
662
401
364
363
373
381
393
412
429
439
435
406
371
360
363
364
366
373
391
401
378
373
373
373
363
432
643
364
357
361
364
373
384
401
414
417
408
373
352
348
353
359
363
364
366
389
385
364
360
361
361
290
659
469
345
341
343
347
358
369
390
396
400
382
344
328
328
334
336
339
341
338
344
364
359
343
339
341
343
252
662
398
330
323
329
338
349
362
380
392
398
381
347
337
338
343
349
351
357
360
364
385
391
370
367
371
373
322
624
543
367
361
368
375
387
403
423
435
441
427
390
372
372
374
378
380
381
381
382
387
411
393
384
382
385
386
299
663
384
369
367
372
381
391
411
425
432
432
403
373
366
368
371
376
378
378
382
400
405
383
380
383
385
350
577
594
377
371
373
382
392
407
426
441
447
437
393
371
370
373
372
377
378
386
398
398
379
372
367
371
343
520
540
382
379
389
394
410
428
440
460
461
451
417
385
378
386
391
390
404
434
439
421
412
409
398
375
514
617
373
366
370
379
397
414
439
458
462
446
399
372
362
359
361
362
374
403
401
382
382
386
384
312
662
483
358
348
353
359
378
397
418
432
434
408
370
353
347
347
348
345
345
352
371
349
340
343
347
349
304
661
350
340
344
349
358
374
392
414
424
418
384
352
349
356
354
362
359
366
380
392
373
366
368
366
353
451
585
363
361
359
370
378
388
411
423
432
416
380
357
350
352
355
360
361
369
373
391
384
369
370
375
371
293
661
387
369
364
369
376
384
401
423
431
441
408
373
361
352
347
347
354
363
396
379
356
353
351
345
271
661
364
337
325
334
346
361
388
416
434
443
416
378
359
349
345
346
353
374
368
350
351
360
364
322
595
504
358
350
356
367
380
406
416
431
434
415
375
350
349
352
358
363
389
389
371
369
375
378
356
459
601
370
364
367
375
386
401
418
433
437
424
387
367
370
379
383
391
408
422
404
394
392
396
393
311
662
392
378
381
384
392
408
426
446
456
454
419
387
381
380
385
384
391
408
410
391
388
390
391
376
504
586
388
378
385
388
395
411
427
442
442
428
389
359
358
358
360
365
386
399
382
367
364
370
364
274
662
359
351
343
355
368
380
404
413
434
436
403
367
357
349
360
356
391
398
370
357
365
362
367
320
662
358
341
343
356
367
378
398
423
420
416
381
351
348
347
357
362
397
397
387
366
368
368
338
601
583
367
358
357
364
373
395
416
425
427
406
368
352
352
356
365
379
398
373
346
339
344
346
245
663
382
336
331
335
340
355
373
393
405
402
362
336
329
340
349
349
363
378
380
360
356
356
363
323
639
554
351
346
354
368
381
401
426
443
449
437
405
392
396
394
394
384
387
411
407
403
407
409
416
342
662
516
395
389
400
408
428
447
462
465
459
432
394
379
376
385
387
396
413
421
398
383
376
377
378
299
662
390
369
367
376
382
397
418
435
445
435
401
367
353
359
363
365
363
381
393
372
362
359
356
348
330
639
343
333
329
335
336
343
358
369
371
362
323
292
285
284
285
286
286
299
306
288
281
281
285
278
340
502
293
284
288
301
313
329
349
360
369
353
317
323
319
332
337
340
345
364
374
364
365
369
377
365
496
563
384
381
391
405
424
447
471
487
494
480
444
420
415
413
411
412
417
438
438
421
424
428
433
385
654
544
421
419
425
433
445
455
467
474
476
459
423
403
400
403
400
394
406
420
409
400
400
401
397
310
661
398
370
370
376
383
394
409
423
428
425
396
365
355
359
364
368
375
389
388
374
369
370
372
337
559
474
367
362
368
376
383
396
413
425
429
416
377
361
361
364
367
370
386
394
376
371
372
373
372
363
641
376
367
370
378
385
396
413
428
436
430
399
374
369
371
370
371
379
396
385
373
373
375
377
307
659
411
372
368
373
381
388
405
421
432
437
412
381
364
367
369
371
375
391
395
376
375
376
384
357
512
526
379
373
379
388
396
407
426
443
443
432
397
368
368
367
374
380
406
411
387
384
383
383
381
386
659
382
371
366
380
380
396
415
433
442
438
401
371
371
378
383
398
425
415
397
385
384
382
324
635
526
368
364
369
374
390
406
428
437
443
419
386
360
361
364
367
386
402
381
367
363
367
365
278
664
360
350
350
354
362
374
390
409
414
405
368
336
330
330
331
341
368
364
342
332
333
333
318
459
584
325
314
316
327
334
352
369
383
385
369
330
308
306
306
313
321
345
353
337
336
343
349
343
417
632
345
332
329
337
344
355
375
394
396
385
340
323
316
322
329
335
361
379
369
364
374
377
379
288
662
379
367
369
385
400
419
458
476
481
470
429
391
372
371
378
394
431
433
415
419
418
418
362
659
574
387
376
380
382
395
415
433
440
438
412
371
348
345
350
357
382
392
373
367
365
366
361
298
661
348
334
335
339
350
365
387
402
410
400
362
334
331
334
338
349
372
378
361
358
359
359
349
430
596
350
343
347
356
365
383
403
416
422
408
372
354
354
359
364
366
376
398
387
377
374
376
378
290
661
396
371
370
376
385
395
410
428
437
436
409
379
370
375
379
381
386
402
409
389
388
387
388
361
528
527
378
372
375
383
388
405
422
434
437
420
381
359
355
362
365
373
398
405
390
386
392
391
382
424
646
386
375
377
379
386
395
408
417
413
402
367
341
340
337
343
353
377
374
346
343
341
343
288
636
415
345
334
340
344
355
371
392
399
401
379
346
338
342
350
361
389
396
368
355
350
347
338
384
635
344
339
347
354
369
383
402
415
421
404
365
344
345
352
356
375
399
387
378
380
380
379
293
662
391
373
371
379
390
399
417
437
445
438
404
378
370
374
383
389
410
410
391
382
385
385
340
623
513
377
373
377
383
394
410
427
433
431
400
361
344
341
344
346
357
380
374
354
353
355
355
276
661
397
358
358
365
374
386
408
427
438
435
404
369
365
361
365
377
401
405
384
382
383
385
351
543
546
369
364
367
380
390
407
426
434
437
414
374
358
355
355
359
372
395
384
364
361
359
358
269
661
374
338
334
340
348
364
385
402
414
414
379
354
353
350
352
363
385
381
361
360
361
363
304
644
457
354
349
350
362
372
392
410
423
423
395
360
349
350
356
363
388
388
370
367
368
368
321
605
499
364
360
367
373
384
402
418
428
430
406
372
360
365
370
378
397
401
383
380
382
380
348
553
544
378
374
378
389
398
413
431
443
445
423
387
375
373
379
378
382
399
404
386
382
385
385
347
585
508
374
367
371
375
384
395
411
420
424
404
372
359
356
359
362
361
361
370
391
379
374
375
376
376
358
651
369
374
359
370
370
384
403
412
422
413
384
347
343
352
342
346
348
355
377
370
357
359
361
359
274
660
372
343
344
351
360
376
389
408
418
418
390
361
356
361
366
369
373
376
394
414
397
392
396
399
383
489
587
387
380
385
389
399
413
429
440
445
432
395
373
371
374
377
380
380
391
411
398
390
391
393
391
336
660
391
379
378
384
391
400
416
429
435
428
396
369
366
368
369
370
374
391
408
392
387
391
392
386
439
620
387
383
383
390
397
412
423
441
447
433
396
376
373
378
383
384
391
412
422
401
400
404
404
358
634
498
398
398
403
419
420
431
449
474
468
450
409
381
386
378
386
394
427
428
410
406
405
407
369
584
569
386
380
382
393
409
421
433
439
436
411
378
348
345
348
348
368
392
369
351
346
345
345
255
663
332
319
320
322
329
346
364
376
382
371
334
306
303
301
307
315
344
339
314
310
310
313
233
660
373
301
294
302
311
325
344
367
377
382
354
321
319
322
332
340
347
370
359
340
339
340
345
253
662
369
342
338
350
362
379
399
422
434
432
399
370
363
369
374
379
380
385
412
404
390
388
389
390
296
662
402
377
374
383
392
405
422
437
444
440
407
375
367
371
375
377
377
381
400
407
388
383
386
388
332
639
477
376
371
374
386
393
409
427
437
437
411
376
362
361
364
364
365
366
379
396
380
369
369
369
369
338
650
364
354
357
363
377
385
407
419
429
421
386
363
362
362
366
374
375
388
410
392
390
393
392
384
422
589
362
351
351
359
373
390
414
429
434
418
381
358
355
357
361
364
373
390
386
373
372
376
378
312
658
418
371
368
373
383
391
407
425
437
438
411
378
369
370
371
372
375
380
397
387
374
373
375
379
299
661
398
374
373
378
385
395
410
426
431
430
399
368
361
362
365
369
374
390
397
378
372
373
375
363
456
559
372
365
371
379
386
398
417
431
435
416
378
362
360
364
367
370
375
392
398
379
378
379
380
355
512
522
373
366
369
377
384
397
414
427
429
409
375
358
358
362
364
369
383
396
381
375
372
375
376
321
658
383
372
376
378
390
402
422
433
440
432
397
371
364
364
371
379
396
405
383
382
385
382
374
434
619
381
375
376
385
396
403
422
437
439
424
384
362
362
365
368
376
396
396
375
367
370
367
341
532
511
362
355
360
368
379
395
414
423
427
403
366
351
351
352
357
359
376
388
370
363
362
362
362
337
655
362
355
358
366
378
393
412
426
431
420
384
360
358
361
365
370
375
391
398
381
374
375
374
352
502
533
366
360
369
376
386
399
415
426
431
412
376
359
361
364
369
371
373
375
380
403
395
383
381
383
384
299
662
390
371
371
377
383
394
410
423
431
429
399
369
362
363
365
369
370
371
370
384
404
385
378
377
378
373
376
629
374
366
368
375
381
389
406
419
425
417
388
361
356
357
363
365
372
372
378
394
403
387
380
380
381
351
542
503
374
368
375
381
392
405
426
439
442
424
384
367
364
367
374
376
378
389
413
405
387
384
386
384
295
662
404
372
367
373
381
393
407
423
434
425
394
356
346
342
342
345
345
354
376
367
349
345
344
344
248
660
360
319
317
320
326
336
354
371
380
378
346
314
310
311
313
316
317
322
343
345
326
322
325
330
292
532
473
329
324
331
339
350
366
386
399
406
386
353
344
347
353
359
366
371
392
408
390
385
386
388
381
398
649
376
370
372
380
386
398
415
430
436
425
387
366
367
372
375
378
380
385
405
402
386
385
387
385
312
661
425
378
376
381
388
397
413
430
438
440
411
377
369
373
377
383
386
390
405
418
401
394
396
398
389
444
621
392
385
389
398
403
414
433
444
450
439
402
377
378
380
383
390
391
398
415
419
401
399
397
399
363
592
526
398
394
396
401
408
423
440
452
453
432
391
372
370
372
377
380
381
393
411
399
386
383
385
384
300
662
397
376
376
382
391
402
418
435
440
438
405
374
366
367
370
375
377
380
394
411
395
386
386
387
386
341
659
383
374
375
382
389
402
420
434
439
429
393
364
360
363
367
371
376
379
387
407
407
388
388
387
388
335
635
462
381
376
381
388
397
411
429
439
440
416
379
362
363
365
367
368
370
374
386
403
388
380
380
381
380
329
659
386
374
377
383
391
403
421
436
447
436
402
374
365
369
373
376
377
382
387
402
411
391
389
390
390
361
562
513
388
384
386
393
402
417
435
444
450
431
394
374
371
375
374
379
383
393
414
413
396
393
394
392
337
656
457
386
383
383
393
402
420
438
448
448
422
380
364
360
363
367
368
378
399
399
378
373
374
375
345
536
525
365
358
364
368
381
397
412
423
427
409
367
349
346
348
350
355
365
387
385
371
371
371
369
330
583
485
360
353
357
362
373
389
406
418
422
398
362
343
343
346
350
352
362
379
381
364
361
364
363
328
558
493
361
353
357
365
375
391
410
422
427
408
373
357
357
360
363
364
370
386
395
380
375
377
381
375
422
624
376
370
374
382
389
401
421
438
443
430
393
371
371
373
374
375
376
380
396
405
389
385
390
389
373
500
576
386
380
382
388
400
413
432
448
451
437
400
377
373
380
380
385
384
393
413
404
391
391
394
394
312
662
414
381
377
382
384
394
416
429
440
436
407
371
357
350
352
353
355
362
384
387
367
360
361
361
341
474
554
348
341
343
352
359
377
393
407
412
394
359
336
336
336
337
344
350
373
377
360
359
364
365
345
501
557
364
359
364
375
383
400
420
434
440
421
383
369
368
372
379
384
389
412
416
398
394
395
396
374
508
600
386
381
384
391
402
415
433
446
449
431
394
376
375
377
381
382
388
406
409
393
387
388
390
375
479
598
385
378
382
390
399
411
429
442
446
431
390
372
370
373
374
377
383
399
401
383
382
386
388
374
471
589
386
377
382
387
399
412
433
449
453
437
396
377
372
374
380
381
382
394
413
401
390
389
389
390
311
663
429
382
379
386
391
400
417
435
446
444
416
379
364
363
365
365
368
375
394
393
374
371
375
372
350
500
564
365
357
358
368
378
392
410
425
429
411
374
355
354
355
361
363
367
368
381
400
385
376
376
379
379
294
662
387
371
372
379
388
399
419
435
445
443
410
378
372
375
379
381
383
385
390
410
409
393
393
394
395
350
618
510
387
383
387
393
402
417
435
447
451
429
393
375
375
377
380
382
383
384
390
406
408
390
387
389
389
348
585
503
376
373
377
384
392
407
424
437
440
422
383
364
365
368
369
374
375
375
382
398
395
381
377
380
380
322
629
446
369
365
371
378
388
401
421
432
436
414
376
361
370
374
375
377
377
381
388
404
401
382
383
385
385
322
659
434
380
373
376
385
393
410
432
441
440
421
382
367
360
363
366
372
372
381
403
407
383
381
380
381
360
493
588
377
371
374
379
389
403
423
434
437
422
381
358
353
354
357
360
364
370
387
397
376
372
372
372
365
382
648
367
359
361
369
378
390
411
427
434
426
389
363
359
360
365
370
373
374
376
387
404
390
381
381
384
382
317
661
383
374
376
381
389
399
418
435
445
441
409
379
371
372
378
383
384
386
387
389
397
414
398
390
388
387
387
331
661
388
378
378
383
391
402
417
434
443
438
408
376
367
367
370
373
376
376
381
385
385
402
406
389
385
383
382
343
584
495
378
374
377
382
390
406
424
439
442
428
388
367
358
367
366
369
370
374
376
395
403
385
378
377
380
371
428
609
377
368
372
381
388
402
423
438
446
432
396
368
364
362
365
366
370
373
394
402
382
376
375
377
376
348
659
375
367
371
376
383
396
415
431
437
431
394
365
359
362
362
367
370
376
390
404
385
378
380
379
379
310
662
380
369
370
374
382
395
412
432
440
436
402
370
364
364
367
370
372
374
382
404
395
380
378
379
380
319
647
454
375
370
375
382
390
405
422
434
437
416
378
362
361
364
367
370
371
374
380
399
399
383
380
380
382
337
602
484
379
374
377
385
390
405
425
438
441
425
386
364
364
365
367
374
371
378
388
408
393
383
380
384
378
306
661
394
379
380
384
389
400
418
440
447
445
414
379
365
363
363
370
369
378
392
408
385
378
378
378
379
313
661
385
374
376
386
392
406
426
440
451
444
411
376
365
364
368
368
377
386
410
404
382
382
382
383
320
658
477
372
369
373
383
394
411
430
443
444
422
384
366
361
366
369
376
380
400
408
387
382
380
383
383
350
662
379
375
375
380
391
404
423
438
447
437
403
374
366
368
372
376
378
380
387
407
406
392
388
389
390
351
593
532
384
380
382
388
400
416
434
447
453
434
395
374
374
375
379
381
381
383
385
394
413
400
389
389
388
387
300
662
394
373
372
377
383
395
413
428
437
436
405
371
359
358
359
361
364
366
367
373
391
391
375
372
375
375
335
580
482
369
365
370
376
386
401
422
434
440
421
383
363
370
370
375
377
379
381
384
388
407
401
387
383
381
381
311
660
417
372
365
370
378
386
403
423
432
434
411
373
351
347
