349
369
376
381
366
333
300
291
290
288
284
282
283
286
288
279
275
271
270
198
539
343
239
235
239
252
266
288
310
326
328
299
274
263
264
277
287
297
308
331
332
323
317
320
320
233
661
422
318
322
334
343
372
395
416
429
423
392
362
352
355
357
364
370
377
397
401
390
380
389
389
315
663
574
378
376
378
392
404
425
445
453
450
412
375
366
366
366
369
367
366
372
376
390
380
373
368
372
355
444
657
357
341
346
357
370
387
408
416
417
396
356
338
336
333
338
331
330
338
339
363
354
350
346
347
352
244
664
353
332
326
336
348
370
387
411
418
407
369
353
338
339
341
339
345
348
353
353
371
375
363
362
367
368
276
663
469
352
352
357
372
388
412
431
442
444
411
377
363
361
363
364
364
366
367
364
366
388
377
369
367
360
365
252
664
372
337
336
345
356
376
400
422
429
422
388
355
346
347
346
347
347
351
354
355
361
359
378
382
370
368
370
370
268
663
383
353
350
355
369
386
407
425
434
430
399
368
355
354
353
353
355
357
355
356
357
375
369
362
357
358
357
302
662
356
346
351
359
374
383
411
424
427
416
381
348
342
337
335
331
326
329
324
332
345
333
314
322
317
308
323
570
309
297
294
302
310
330
350
359
363
353
322
291
283
277
285
292
292
303
323
311
305
303
306
316
269
655
332
315
326
342
363
386
416
435
440
431
400
376
375
378
381
385
395
413
399
388
393
394
392
292
665
408
377
375
383
393
412
434
452
452
438
395
375
371
366
371
369
378
392
389
366
360
364
360
250
664
457
340
330
332
338
352
371
388
400
389
351
323
306
308
311
314
314
314
313
335
329
310
311
312
313
186
664
360
299
291
305
319
333
360
383
391
388
358
322
318
317
323
325
324
334
338
337
344
342
352
378
355
350
347
354
266
662
512
328
320
322
332
352
374
396
404
409
386
350
332
332
333
334
331
335
337
343
339
349
367
354
347
348
350
332
451
653
339
333
341
352
363
387
413
429
429
417
381
357
354
359
357
361
364
363
362
363
363
364
388
389
370
370
373
369
255
664
429
347
341
347
360
373
394
417
423
423
399
359
345
344
347
344
351
349
349
353
353
364
380
368
366
367
369
352
453
654
355
350
356
362
375
393
417
429
433
417
382
357
351
355
355
355
358
359
357
358
378
375
364
361
359
364
262
663
414
343
340
346
358
373
394
417
422
424
396
365
353
355
355
361
361
362
365
364
366
384
377
368
365
366
362
260
663
380
332
329
337
346
359
376
397
399
396
366
330
314
312
310
309
309
302
306
316
331
316
314
313
311
310
284
616
313
291
297
308
322
346
376
394
393
386
355
328
319
319
324
327
330
339
367
358
342
343
344
349
260
662
438
344
345
349
365
383
410
430
439
442
412
371
358
353
351
355
358
369
374
359
348
350
354
354
258
664
357
338
339
346
359
377
400
420
423
415
377
354
346
343
346
342
342
355
368
353
351
352
360
358
287
664
351
336
336
346
359
380
404
427
429
420
380
354
346
342
341
345
342
351
365
370
350
347
350
349
299
573
547
333
328
342
350
358
377
399
410
405
377
337
317
313
309
310
306
303
310
329
330
315
315
313
317
255
548
451
290
281
281
296
311
339
358
369
368
351
310
290
286
295
293
298
304
313
338
325
326
328
329
331
219
663
355
323
323
336
352
372
393
417
427
425
395
363
356
355
355
356
359
364
379
387
372
367
370
372
350
461
647
355
350
357
368
378
395
419
431
438
426
392
373
374
373
380
385
381
382
396
413
403
399
395
398
398
361
663
383
375
378
377
378
391
408
421
422
405
372
335
319
311
313
315
308
314
335
337
330
326
326
327
268
580
420
308
298
313
340
373
416
461
484
482
450
399
362
345
338
339
354
375
394
384
379
384
384
378
321
663
367
349
345
350
365
384
408
426
433
429
390
364
358
359
354
350
355
372
356
347
348
350
350
257
663
421
336
331
338
346
360
382
404
418
416
385
352
338
337
331
331
329
324
335
343
339
339
345
349
333
416
618
332
323
325
337
348
367
389
404
415
400
364
344
344
346
341
346
340
340
337
347
350
332
326
328
328
252
628
390
305
301
306
312
327
348
371
380
375
356
316
290
289
288
292
289
286
297
304
291
277
280
270
271
159
648
294
245
242
247
257
276
293
310
317
317
298
272
266
270
276
285
291
312
315
301
298
311
334
363
325
659
349
296
381
372
380
412
454
466
475
462
461
399
386
391
372
378
406
407
446
432
402
450
446
405
515
663
412
358
373
386
416
425
399
470
484
477
411
407
359
367
354
348
355
388
387
389
368
387
359
365
413
593
347
347
333
324
358
359
403
388
444
394
398
343
349
343
389
309
338
300
376
344
333
321
325
354
270
635
377
315
332
305
322
316
367
353
398
358
401
355
348
319
286
325
308
282
314
297
334
310
295
334
196
650
379
301
302
321
337
363
359
401
373
396
357
360
353
315
365
333
365
395
399
394
376
391
385
394
514
569
403
383
395
376
410
410
416
439
440
434
405
379
414
404
386
395
363
372
344
339
336
338
323
297
612
372
333
347
338
305
335
349
382
344
352
289
288
310
292
310
296
328
305
288
321
286
279
306
280
554
317
317
330
311
341
346
392
394
381
388
349
338
330
326
334
361
388
383
351
395
373
376
324
626
514
397
378
417
408
425
445
458
471
449
432
406
390
370
394
389
408
423
412
423
426
430
430
373
662
423
404
408
404
404
421
435
453
452
463
398
378
391
380
349
329
357
334
327
283
272
268
273
318
462
281
295
308
306
356
321
367
391
392
386
316
320
303
342
311
320
342
331
297
297
276
257
190
551
335
284
293
334
330
351
372
389
397
399
378
354
349
352
374
387
411
413
406
398
386
382
363
464
543
362
348
368
383
391
406
432
446
457
440
405
375
359
354
342
343
356
360
354
360
364
367
319
598
459
373
366
375
380
380
393
406
403
406
378
346
330
331
329
340
343
349
343
337
331
330
335
293
559
423
338
332
335
339
343
352
367
381
383
371
348
340
339
345
358
357
349
345
325
311
313
314
245
592
374
318
320
326
325
321
342
360
358
361
350
326
315
319
309
324
318
310
295
292
301
313
252
630
399
336
323
328
330
332
355
373
392
400
396
374
369
363
359
368
375
371
365
369
375
379
292
662
426
354
346
358
366
381
409
424
432
419
383
345
338
335
348
357
377
383
367
352
348
338
292
519
486
343
342
356
346
356
362
370
383
390
385
362
355
355
349
350
339
348
350
336
332
333
324
304
332
539
294
283
300
313
328
339
363
361
366
340
310
299
308
312
316
314
321
316
318
310
326
337
351
287
661
415
347
341
346
353
381
396
419
440
454
431
414
401
400
408
405
414
408
394
381
375
389
396
308
664
508
434
420
408
396
399
406
419
435
439
422
404
397
391
378
367
356
357
348
343
348
368
368
270
663
401
345
343
343
346
346
362
382
389
397
370
351
343
348
346
347
344
339
355
352
337
335
337
334
271
576
393
296
292
291
293
303
323
349
368
364
350
324
293
295
298
293
299
295
300
316
317
307
310
312
310
243
596
394
308
313
321
330
340
359
378
384
384
376
340
330
336
340
349
361
383
388
390
379
389
397
397
345
663
412
385
389
391
406
418
437
450
449
436
401
372
365
363
359
359
369
388
377
368
366
367
368
275
663
405
353
352
360
368
377
397
413
424
420
393
363
352
355
356
357
352
355
370
369
355
354
357
361
308
576
502
350
337
347
347
355
373
396
405
412
396
362
346
345
348
350
354
349
352
360
376
370
369
367
374
378
309
662
380
363
363
375
381
389
405
425
432
432
400
377
369
366
365
364
364
363
358
361
374
365
357
356
358
355
338
637
351
336
336
350
351
362
378
391
392
388
361
331
321
321
324
322
325
319
317
323
336
329
324
318
323
319
230
650
323
296
301
308
316
325
346
365
374
379
356
316
306
310
314
302
305
301
298
301
316
305
299
304
298
307
249
610
313
289
292
304
319
325
357
367
382
373
347
316
306
309
310
325
325
330
358
340
331
335
343
343
276
646
420
339
336
349
362
382
404
435
454
444
422
396
385
378
382
386
386
415
420
411
406
408
410
410
316
664
422
390
392
393
400
412
428
446
450
435
406
370
359
358
356
358
362
375
381
364
360
357
364
338
488
606
352
346
353
359
373
388
407
419
421
414
365
354
347
345
346
345
352
353
370
363
352
360
358
361
260
663
380
352
352
363
370
386
395
408
420
408
385
347
340
343
346
343
339
339
350
364
353
347
351
351
349
250
662
364
333
338
339
348
354
371
390
392
389
366
332
317
314
311
311
313
312
311
321
326
316
314
318
317
273
519
434
309
298
317
310
322
337
348
360
369
348
315
291
286
286
282
279
280
284
301
309
302
296
304
309
299
300
581
311
294
302
316
329
348
362
387
395
386
353
327
326
325
323
333
331
352
369
369
367
372
376
385
289
663
427
384
387
398
413
430
441
465
475
471
435
406
392
391
390
396
389
396
411
408
391
395
393
395
343
640
573
384
376
382
389
394
403
421
429
433
410
373
359
355
356
353
353
351
349
356
372
359
351
360
356
356
328
659
353
340
348
353
361
371
386
402
407
403
376
350
348
342
343
342
342
336
334
332
331
352
350
340
340
337
335
238
659
361
319
319
326
336
336
347
359
375
385
365
337
325
321
316
315
318
306
308
302
307
326
318
318
321
328
323
251
638
332
311
313
323
334
347
370
391
396
395
368
341
329
329
340
337
344
350
366
366
358
357
357
364
324
541
534
350
342
353
370
390
414
437
455
457
435
405
388
382
387
397
405
417
430
415
412
412
412
400
368
663
397
387
378
391
411
438
454
472
471
452
399
366
353
332
327
318
335
346
331
332
336
340
345
242
662
364
341
340
341
348
355
372
381
386
375
347
326
320
328
336
338
344
355
336
311
311
300
304
227
642
391
320
325
332
342
344
358
366
369
360
337
300
298
308
320
324
326
331
333
333
319
309
310
310
302
428
572
334
336
344
358
368
380
399
406
411
400
372
354
356
365
367
373
373
372
374
386
376
369
369
373
377
320
663
379
371
375
383
389
401
412
426
435
433
405
381
376
377
374
372
369
370
372
380
369
364
368
376
380
301
662
388
359
357
363
361
364
371
387
404
397
366
341
334
330
328
322
310
313
325
321
305
303
317
314
282
517
419
310
301
300
309
317
333
350
363
358
351
311
290
284
283
282
278
301
307
301
296
304
316
326
284
658
355
341
343
350
364
383
407
419
428
424
396
367
362
360
362
365
388
385
376
372
378
389
377
437
661
390
384
388
389
394
416
427
439
453
438
398
379
371
364
364
364
365
380
381
372
373
379
380
335
596
551
370
363
369
379
391
398
417
432
434
418
384
367
368
370
366
366
367
362
365
380
384
374
376
374
376
304
658
459
362
356
363
366
373
385
404
413
423
409
382
368
371
369
374
376
380
381
390
395
384
377
378
373
371
338
646
360
352
358
359
364
372
386
396
401
390
355
316
310
305
308
298
300
304
316
318
307
314
320
317
275
541
418
321
319
320
325
328
352
361
379
383
378
338
320
319
313
312
316
333
342
335
341
356
369
384
366
661
398
389
380
382
380
385
402
414
409
389
359
334
331
334
329
320
327
334
320
315
322
330
332
295
657
352
340
335
342
348
362
383
399
412
401
367
341
334
330
330
329
336
344
335
325
331
339
351
265
662
401
356
352
359
366
375
396
414
424
427
403
372
361
366
369
367
363
358
368
366
355
354
356
361
335
493
564
353
349
351
358
360
372
387
402
411
400
369
353
348
348
347
344
344
342
352
357
347
347
354
358
351
406
604
352
344
346
359
365
376
386
403
399
391
359
325
319
314
310
305
307
314
320
311
303
307
305
311
220
632
330
302
299
313
322
335
363
376
384
383
355
328
317
325
322
326
332
348
351
336
341
344
352
343
469
612
380
373
379
392
402
422
438
454
459
448
409
385
382
386
380
389
402
394
374
374
375
379
329
591
537
357
349
360
362
372
384
405
413
415
388
354
331
328
329
325
335
349
341
335
338
342
340
263
656
416
339
330
347
355
369
384
401
411
413
388
352
345
341
349
347
346
348
362
363
357
358
363
364
331
544
556
365
362
372
386
394
410
432
445
448
437
401
380
376
375
368
365
364
364
374
371
363
363
362
364
288
634
449
344
337
345
354
362
375
395
400
405
386
354
332
331
328
327
334
348
351
341
340
345
344
323
459
529
337
330
336
348
359
377
397
409
416
403
370
354
353
352
354
356
361
379
375
367
369
376
382
304
661
435
370
369
374
381
383
397
410
416
417
399
354
336
334
336
327
322
324
331
338
326
326
319
320
314
272
612
322
304
304
317
326
335
358
375
382
371
340
310
307
304
310
310
317
329
338
327
327
332
336
334
337
650
353
346
350
359
374
386
406
423
428
421
387
357
347
351
351
355
367
385
376
366
373
374
374
280
663
396
361
362
369
380
389
408
425
428
429
394
363
354
355
355
350
353
357
370
374
360
361
360
360
327
539
541
354
347
356
364
369
381
400
412
417
404
372
354
351
352
354
357
356
360
366
384
375
371
376
381
382
308
662
393
382
387
401
411
416
433
447
460
462
438
409
401
405
405
403
404
401
403
412
421
408
404
401
392
379
424
617
360
346
348
350
352
355
368
377
376
366
329
289
280
275
273
270
272
268
287
295
282
280
287
289
286
305
530
292
286
288
302
313
345
366
379
380
373
341
312
307
313
320
337
350
377
387
383
391
391
399
375
526
646
391
387
391
395
408
422
437
454
449
434
390
365
353
352
343
349
363
372
359
349
350
352
352
252
663
360
326
326
334
343
357
373
394
403
397
363
332
323
324
321
327
327
343
344
333
327
331
336
332
335
658
330
314
320
333
343
357
378
396
405
403
371
350
344
346
339
337
336
343
343
330
326
333
349
353
370
661
357
346
344
349
352
364
382
398
405
403
373
346
343
343
342
338
334
351
347
334
334
345
357
330
514
608
361
353
361
375
386
400
427
441
451
438
408
390
385
386
388
392
401
410
392
386
384
386
387
305
662
397
377
381
384
390
397
411
422
427
420
389
357
349
347
347
346
351
359
360
350
351
358
363
350
530
586
380
378
378
380
378
380
388
398
407
390
357
335
329
321
325
310
321
320
307
290
297
299
304
231
653
356
305
305
308
315
327
338
358
367
362
341
305
287
292
295
303
321
337
335
329
338
348
355
270
662
425
355
348
355
368
374
392
414
418
416
394
361
349
348
351
355
375
371
362
358
359
368
369
309
664
378
360
365
374
383
400
422
440
450
440
413
389
390
387
382
388
400
399
385
386
387
402
403
427
663
396
381
379
386
387
402
423
442
449
440
398
368
364
354
349
355
372
366
349
352
355
361
293
649
495
342
331
333
336
343
361
379
389
392
370
331
312
305
305
302
317
319
305
302
303
311
307
292
632
311
299
301
312
320
340
358
372
377
367
336
312
306
307
311
313
323
341
339
330
332
337
341
273
645
427
336
335
343
356
365
388
401
416
425
398
363
346
339
335
330
331
330
331
354
344
335
342
341
338
245
658
342
316
311
317
329
339
367
383
391
389
360
326
318
312
318
315
319
327
342
330
323
321
330
331
237
661
355
326
332
346
361
382
402
421
430
424
392
360
347
343
344
343
357
376
369
360
356
363
364
283
662
465
360
353
363
380
392
412
432
442
443
420
387
369
365
368
367
363
373
389
383
374
372
380
381
306
661
494
359
350
358
364
373
388
404
416
419
402
363
340
333
333
335
331
333
336
351
356
346
344
350
351
305
517
499
331
322
334
342
353
366
385
398
404
393
363
340
336
335
336
340
341
353
361
353
355
361
366
369
291
663
379
362
362
378
383
397
416
431
439
440
413
388
378
376
374
376
372
374
376
387
374
366
361
361
351
278
657
342
317
318
315
325
335
347
364
370
360
330
294
273
273
275
279
273
286
307
302
296
299
297
304
227
596
362
294
295
309
322
352
369
390
395
396
378
342
325
320
326
334
341
359
367
355
349
356
359
364
280
663
377
354
359
366
377
391
420
433
444
437
410
376
363
361
363
360
372
384
369
357
361
359
355
257
662
418
331
326
333
341
350
362
384
390
392
363
325
307
308
303
305
308
309
332
324
319
323
322
324
241
636
406
304
306
316
325
337
354
378
392
391
374
336
318
315
315
320
322
328
336
350
362
362
356
363
368
360
300
662
362
345
350
361
374
392
410
434
435
435
409
375
360
361
366
370
377
378
384
392
411
396
393
391
391
386
321
663
395
373
372
386
392
412
434
451
463
454
419
382
364
360
359
357
362
361
367
391
394
376
372
369
367
312
601
569
353
348
358
368
383
395
411
414
413
393
352
328
329
338
349
352
347
347
357
335
313
307
309
305
210
662
348
310
312
323
331
346
361
375
387
389
362
329
317
318
317
318
323
325
334
344
332
330
335
342
336
343
628
344
334
338
347
358
366
386
404
404
401
369
335
323
319
315
311
314
314
323
339
332
328
329
333
330
246
651
347
312
315
321
331
341
359
375
377
374
353
316
295
299
302
306
309
312
335
339
332
332
341
349
335
479
592
367
367
375
386
398
418
443
454
460
452
415
390
382
383
388
393
400
414
415
401
396
395
396
361
509
619
372
362
366
372
374
388
405
412
414
394
359
332
326
326
326
324
327
335
348
335
335
333
333
335
237
661
347
322
321
327
340
359
385
405
416
408
379
349
325
324
329
329
330
339
357
374
365
365
363
362
343
408
580
331
324
330
339
350
367
392
409
419
410
374
347
344
339
334
341
337
341
344
363
349
337
333
331
323
274
630
325
308
310
321
336
353
383
405
410
400
369
332
313
315
321
326
339
352
369
382
371
367
366
355
324
463
511
324
316
323
334
345
366
395
401
405
401
359
324
318
312
311
309
318
325
332
322
316
323
321
317
318
589
318
301
299
308
313
333
350
363
367
357
324
286
278
273
277
276
281
298
309
293
299
300
309
310
307
634
334
320
322
329
340
361
385
400
407
397
367
340
332
334
336
343
363
383
379
379
379
379
384
277
664
411
360
346
353
355
370
390
415
427
433
408
379
363
363
357
351
357
375
362
359
364
372
378
293
662
462
375
360
368
377
380
402
420
428
427
406
369
358
361
352
352
349
352
363
348
341
337
342
347
244
662
368
336
337
345
355
368
384
407
409
414
387
356
349
346
347
346
352
350
360
381
383
372
380
388
392
307
662
483
388
385
392
405
417
432
446
458
459
440
401
381
382
379
377
374
373
368
379
386
365
360
366
360
342
412
581
339
324
328
333
338
349
365
373
382
373
338
308
302
300
293
297
293
290
305
313
298
300
304
303
287
413
470
298
283
295
304
312
333
353
370
377
369
344
315
311
315
316
326
329
345
364
360
357
364
370
373
278
662
401
363
362
374
380
392
418
435
448
444
408
376
360
357
359
356
358
356
372
382
369
371
377
373
356
453
612
356
345
347
363
368
382
396
417
421
405
368
341
333
333
332
340
336
340
353
359
346
346
352
356
319
515
531
343
334
340
344
356
369
390
409
421
409
371
353
352
350
356
358
360
362
362
370
353
341
341
345
343
279
661
354
346
345
356
363
372
390
406
409
404
379
339
330
322
314
308
305
298
298
314
296
296
302
308
310
235
633
313
289
286
293
296
310
332
351
357
357
329
294
278
280
278
281
282
289
308
318
309
316
325
329
321
418
556
334
327
334
341
352
367
392
409
419
411
377
345
340
343
340
346
348
354
366
380
373
371
381
377
365
441
635
369
354
370
373
379
400
415
430
433
425
395
372
364
363
366
364
363
349
360
362
348
351
362
365
343
501
563
357
344
348
354
355
370
397
411
420
413
382
353
350
348
343
343
341
341
352
361
355
352
354
358
341
403
564
343
336
340
358
366
376
398
409
407
397
365
329
325
334
344
349
356
364
376
373
359
349
352
344
319
471
556
353
346
360
367
374
396
405
415
414
394
353
321
309
306
299
301
297
301
310
302
285
290
297
288
216
628
304
268
276
281
275
305
326
341
342
344
321
280
270
268
278
294
313
359
375
370
365
356
351
327
417
612
331
334
360
384
417
444
471
483
478
443
390
355
350
354
359
378
404
407
396
393
390
388
358
526
650
357
359
365
380
393
412
439
446
451
436
395
384
379
384
386
384
390
405
403
391
385
392
391
350
611
631
374
367
372
384
392
403
417
428
430
420
372
360
356
362
361
364
359
371
362
343
343
340
342
280
621
451
337
332
344
345
353
372
388
397
401
382
342
313
306
311
306
311
314
327
334
329
330
337
344
337
373
595
335
327
322
332
331
347
369
387
398
397
370
342
334
331
340
342
347
355
373
358
354
357
358
352
396
590
357
349
356
363
369
370
392
404
413
415
387
364
355
355
350
358
363
377
362
349
350
363
360
290
658
370
337
327
318
316
323
333
359
353
350
322
294
286
282
282
291
302
304
291
288
294
305
254
552
400
308
307
319
327
349
368
387
400
409
391
353
334
328
338
347
367
369
352
350
352
361
313
596
519
359
353
359
372
382
395
416
432
432
415
379
363
359
361
366
382
385
370
364
361
371
341
506
587
365
357
361
367
382
392
416
431
430
411
376
358
351
351
356
360
371
384
377
367
373
383
389
305
663
410
388
387
390
398
404
415
435
447
449
421
395
379
371
376
371
367
367
364
374
377
358
355
344
347
320
400
532
310
296
298
299
300
315
332
356
350
344
307
269
258
254
249
255
255
258
261
288
290
281
283
289
289
189
634
331
277
288
302
318
332
362
385
398
399
379
344
331
325
335
346
344
368
378
371
365
367
374
372
272
663
381
358
358
366
383
402
426
449
459
453
417
384
374
369
364
380
381
409
401
395
398
409
413
302
664
463
393
389
389
392
406
414
432
448
445
420
385
372
381
386
374
383
390
402
380
342
331
316
325
235
661
331
288
285
265
260
271
281
309
317
330
295
280
274
290
300
308
314
318
328
345
340
328
312
293
275
209
623
346
313
327
350
369
384
399
414
419
414
387
348
339
340
340
342
345
341
336
338
346
337
327
327
333
343
287
661
380
370
379
392
399
407
425
443
458
459
443
415
416
420
432
434
433
439
441
430
419
422
430
427
341
663
482
435
435
433
428
426
428
445
465
470
453
423
411
417
408
402
392
393
385
358
342
346
342
333
420
550
344
326
330
332
331
332
342
349
355
352
318
290
289
281
270
276
279
275
255
255
255
260
214
511
368
283
284
286
295
299
310
333
353
355
341
309
290
280
285
285
309
315
298
291
304
311
319
289
656
333
319
319
324
338
349
377
390
400
402
371
346
340
340
340
347
359
344
334
332
340
343
242
663
392
340
344
349
353
364
381
396
409
409
388
359
352
356
360
358
365
380
371
362
361
364
370
300
662
472
383
385
398
404
406
416
430
437
437
419
386
367
367
370
374
378
383
396
385
370
360
357
354
263
661
380
339
344
352
359
368
381
394
396
393
365
328
308
302
308
306
310
323
332
314
311
311
313
305
365
570
320
308
304
316
327
343
357
381
388
381
354
329
326
329
334
344
363
355
337
339
341
345
278
654
451
337
334
335
351
368
387
412
432
435
418
380
366
369
367
371
382
398
386
374
381
383
383
276
664
401
357
347
353
355
365
387
405
416
413
391
360
349
351
351
351
358
365
355
333
330
335
333
232
663
382
317
309
313
315
324
341
361
377
381
367
338
326
328
326
327
322
328
342
325
315
318
328
323
283
662
331
315
302
306
303
306
316
323
330
329
307
288
295
299
310
315
315
325
332
309
299
302
300
281
407
482
316
303
304
316
322
324
340
341
343
333
302
277
274
281
285
286
285
298
309
293
283
289
294
287
279
590
307
298
298
314
325
344
368
392
408
397
381
342
330
331
333
341
363
373
362
365
376
382
389
352
663
395
387
385
397
407
418
439
453
462
462
434
412
409
417
417
424
440
456
444
432
436
441
441
346
664
484
430
427
435
442
446
459
472
477
471
442
405
393
389
389
387
390
391
400
395
379
374
376
373
281
661
404
355
348
351
355
358
371
385
400
404
381
346
333
332
325
324
322
321
330
335
324
321
327
330
325
336
598
333
320
321
327
337
344
360
379
391
387
361
330
325
328
325
326
335
349
347
337
340
345
348
272
653
394
344
344
356
366
373
379
396
403
406
378
344
321
319
313
312
313
325
306
287
295
298
294
285
560
290
274
268
273
289
303
330
339
337
329
291
260
258
262
266
276
297
312
306
309
315
318
310
381
585
332
314
323
333
347
370
395
412
417
408
371
353
347
340
349
363
382
377
366
362
370
374
276
663
441
372
361
367
377
382
403
425
430
437
410
372
356
354
343
342
351
356
340
335
342
347
352
378
657
366
359
361
365
377
383
402
422
430
427
397
373
369
370
369
368
374
389
388
374
374
378
383
306
663
463
382
378
388
395
405
419
438
455
461
444
412
396
393
393
391
395
394
405
406
392
392
393
392
331
640
484
370
365
369
372
376
382
401
409
415
397
366
339
334
327
323
318
310
322
319
301
296
300
298
248
508
390
283
275
285
288
292
303
318
325
339
313
285
255
251
252
251
256
273
285
264
263
269
271
255
320
507
281
266
272
289
304
328
353
369
381
371
342
312
315
313
319
337
355
348
337
340
343
347
251
662
406
339
339
344
355
367
378
404
410
405
380
342
336
336
336
346
363
366
354
353
357
360
340
498
601
358
353
362
369
377
390
406
422
428
417
382
365
366
368
370
377
400
394
383
383
393
391
315
662
495
385
382
391
398
402
418
438
449
454
430
397
384
385
381
383
382
393
399
386
380
384
382
357
523
571
372
364
369
377
382
390
403
418
425
413
375
356
352
348
347
345
345
359
358
342
339
341
343
294
552
442
329
319
324
329
333
342
362
376
379
369
330
313
312
312
313
314
325
336
332
323
325
328
329
248
656
353
327
328
338
345
354
367
381
392
394
369
341
332
335
338
337
346
354
355
340
340
344
351
304
567
451
347
343
351
361
364
375
396
410
419
401
371
357
346
348
352
343
353
360
339
334
342
342
323
453
520
338
326
330
333
339
352
376
383
384
370
341
313
312
311
312
318
334
337
321
319
316
325
308
418
568
329
320
315
325
333
347
368
382
392
382
349
328
328
326
333
347
363
353
338
338
340
339
257
662
354
329
328
341
352
365
383
396
402
391
355
330
325
323
331
347
367
369
355
359
363
363
270
662
433
359
363
370
380
390
413
429
439
441
407
372
366
363
364
366
373
391
381
370
372
374
379
286
663
387
362
366
374
382
390
410
427
433
433
406
374
367
365
367
368
370
379
390
379
372
378
376
372
368
658
368
358
360
362
370
374
387
400
408
400
368
339
328
325
327
323
325
329
338
330
324
325
328
325
304
613
321
302
301
297
298
305
322
344
350
347
317
291
281
282
281
282
282
287
297
281
282
288
294
257
489
413
299
285
294
306
312
328
352
373
384
373
341
320
319
320
327
335
349
368
366
360
366
370
380
293
663
446
386
386
393
404
423
440
458
469
474
447
411
394
396
391
390
409
423
417
405
406
410
405
310
663
457
388
379
384
390
392
406
420
425
426
398
365
350
344
340
338
333
337
350
339
331
330
333
335
246
660
348
318
318
324
326
329
346
364
372
376
352
322
310
306
304
308
311
314
323
331
320
319
323
326
294
497
459
321
314
322
329
336
349
370
383
392
383
354
332
331
331
329
334
334
335
351
357
348
354
356
365
326
554
505
364
359
370
373
380
395
415
436
446
437
412
388
384
380
381
381
382
388
400
387
381
378
385
375
325
657
364
340
333
336
339
350
360
376
376
364
331
294
278
275
273
275
284
299
307
292
295
297
305
295
376
558
310
299
307
314
325
341
366
383
385
378
345
317
315
318
322
326
339
357
348
346
350
357
353
311
662
360
350
351
364
371
381
399
418
428
419
391
361
353
353
358
357
353
358
376
368
360
360
365
364
269
663
381
351
348
356
358
367
382
401
414
413
389
358
346
346
342
342
340
336
338
348
360
354
348
352
356
346
372
626
350
338
339
348
352
359
379
393
403
403
375
346
335
334
331
334
333
332
340
353
341
341
340
348
341
339
614
333
316
316
322
317
330
348
367
374
369
338
307
299
295
294
294
293
303
317
310
305
307
307
308
224
640
320
288
291
299
313
325
344
363
370
363
335
303
294
290
293
296
310
332
337
318
324
325
325
268
571
456
323
320
327
334
345
359
379
388
392
372
342
317
312
310
319
324
353
346
332
334
335
339
260
662
418
339
333
343
353
370
391
413
425
421
405
368
356
359
362
358
364
383
393
375
380
384
395
371
526
655
385
382
383
390
401
414
443
455
461
452
420
394
390
390
391
394
393
405
421
416
411
415
417
413
327
664
431
400
398
406
404
410
427
443
448
447
419
384
370
367
363
361
359
356
357
368
373
359
356
363
356
301
579
461
334
324
325
327
325
339
352
365
368
353
324
294
286
283
287
291
292
288
304
321
314
309
311
318
317
247
652
332
308
313
322
328
344
365
386
392
392
366
336
313
317
318
326
328
333
347
363
353
346
347
346
351
310
662
360
350
354
362
371
380
397
413
414
407
374
339
329
331
328
334
335
350
370
354
352
356
361
359
266
663
365
343
346
355
360
366
387
406
410
408
375
343
332
330
331
338
336
340
346
364
362
353
355
356
354
259
662
390
340
339
345
350
356
374
394
406
411
386
355
340
335
336
339
339
341
345
354
368
359
358
362
363
348
446
596
357
351
355
361
368
379
398
409
420
413
375
345
339
336
337
340
347
343
348
360
368
358
355
356
357
320
530
505
347
344
347
353
360
369
384
400
406
391
355
319
309
304
301
296
295
295
304
318
303
298
293
296
288
287
559
294
275
280
285
295
301
323
340
347
337
307
274
266
266
271
276
282
290
319
317
306
310
310
321
259
593
423
319
310
321
333
346
362
382
389
387
368
335
312
313
316
322
333
356
365
352
350
354
353
356
302
663
366
347
352
366
374
392
415
432
441
427
396
360
352
349
356
358
373
384
366
365
368
373
369
268
663
386
355
355
366
370
386
408
425
440
442
410
380
370
376
384
388
399
419
423
413
412
416
421
393
545
660
400
401
408
414
422
438
452
464
468
457
416
386
378
373
371
370
366
379
387
374
366
367
366
364
261
663
381
352
348
350
351
355
371
390
388
384
351
301
283
271
282
270
276
283
296
309
301
292
288
293
284
268
599
286
266
265
263
267
287
296
317
323
320
303
277
280
284
293
295
307
316
294
276
273
275
284
196
661
372
320
321
333
349
361
382
394
406
408
389
352
341
336
338
340
348
364
358
346
348
352
354
270
661
462
338
324
331
331
339
358
376
386
389
368
326
303
304
306
313
317
330
340
322
317
316
317
321
269
662
358
355
370
377
384
388
396
404
404
398
377
354
357
369
387
396
408
413
417
394
381
373
369
366
354
662
384
376
377
390
391
403
416
427
422
405
371
329
314
312
320
321
326
338
349
333
323
328
331
323
286
660
332
315
318
333
343
362
388
404
417
408
386
350
347
347
351
358
375
392
387
378
383
385
391
279
664
439
377
373
380
387
403
422
439
447
439
405
368
356
352
349
351
353
360
374
364
356
356
359
359
252
663
366
336
333
341
351
365
389
405
417
412
385
348
338
337
342
343
345
350
369
369
355
355
357
356
313
553
552
342
335
341
351
358
374
392
406
411
397
362
334
328
328
327
326
326
327
341
347
335
333
337
337
308
464
544
324
314
322
330
340
356
375
389
392
389
349
320
310
304
306
302
301
298
309
327
320
318
318
315
308
241
635
298
279
290
297
312
337
369
401
416
418
392
359
340
334
330
329
335
346
368
359
348
356
356
359
261
663
397
340
335
334
338
350
370
386
398
404
389
361
349
351
355
354
355
372
365
341
332
331
325
315
394
614
311
307
310
328
338
357
380
390
393
382
342
317
317
320
325
332
346
361
346
323
318
315
307
210
660
350
292
297
310
323
333
347
367
370
368
342
303
285
289
288
285
282
286
312
306
296
289
301
300
252
556
460
297
289
298
310
324
348
376
397
407
396
365
355
357
371
383
400
423
437
425
418
425
430
433
334
665
478
420
418
424
438
437
451
466
472
467
430
387
378
365
358
348
346
359
356
344
341
352
360
336
472
637
339
326
323
331
338
355
378
398
413
411
380
353
350
341
333
325
315
315
333
324
330
338
353
358
267
664
343
329
322
331
341
351
372
393
407
413
389
366
355
354
348
339
336
334
347
344
332
344
350
361
303
632
466
336
321
325
332
330
351
371
390
401
392
365
331
331
326
321
314
306
311
317
309
306
315
321
324
284
654
323
316
313
323
328
340
359
370
381
381
354
315
303
300
295
291
290
292
313
309
307
310
326
328
246
659
362
333
334
340
350
366
380
402
419
416
406
371
353
350
344
342
340
348
349
341
335
338
341
336
376
561
333
319
319
325
331
351
364
371
373
369
336
304
296
294
288
295
311
314
301
296
307
316
314
351
598
328
317
322
333
341
363
383
396
398
394
360
333
328
323
333
351
372
362
353
358
366
377
273
664
427
373
378
381
397
404
427
441
450
453
428
400
388
385
383
385
404
395
382
377
382
389
349
595
619
374
365
368
374
384
395
407
416
416
401
369
347
345
341
339
342
352
349
333
336
339
344
292
588
501
328
323
324
336
341
358
381
391
400
380
342
317
306
314
316
319
321
341
343
330
332
334
335
299
505
521
321
312
314
329
331
343
361
371
372
359
313
290
285
276
276
273
273
273
294
290
277
279
279
285
227
577
408
294
285
295
309
322
341
366
379
383
371
330
317
312
310
317
323
337
354
361
341
339
339
339
338
396
657
346
340
346
355
372
386
408
424
425
413
379
351
348
345
344
343
345
368
363
355
353
360
366
321
618
593
364
358
364
374
383
404
415
430
426
401
359
332
327
329
329
320
327
331
352
345
332
330
332
327
229
661
392
305
305
309
318
335
347
370
387
394
373
336
315
317
318
322
327
338
347
363
374
365
365
372
381
357
450
660
362
352
357
361
367
379
400
422
431
418
392
360
357
355
356
351
356
356
358
375
383
365
366
359
362
341
462
637
357
346
350
358
361
373
392
409
410
399
359
331
330
325
327
330
331
336
356
347
333
333
336
336
301
524
554
341
336
345
358
370
390
409
417
412
391
359
331
323
322
314
337
321
331
349
327
324
320
324
320
233
661
332
303
300
302
305
314
332
346
350
338
315
289
280
287
288
295
308
326
312
298
294
298
305
199
663
371
322
327
343
361
379
410
425
445
449
427
397
391
398
407
415
437
456
443
429
428
426
427
318
664
542
411
407
420
432
447
464
483
487
487
451
405
389
380
384
382
380
395
400
381
372
369
369
362
296
662
349
332
331
337
348
361
382
401
404
397
363
334
324
321
323
324
324
322
332
348
337
335
338
338
343
260
662
363
341
340
350
360
377
390
415
424
422
398
365
342
350
345
350
343
342
346
344
350
342
330
332
328
341
304
632
318
311
306
307
311
318
332
349
347
340
319
280
278
280
277
268
261
268
278
284
265
262
274
289
268
401
504
298
286
293
291
297
309
326
335
346
335
309
281
280
288
291
301
311
328
316
307
309
312
322
273
589
435
338
337
342
360
369
394
412
425
433
417
389
365
371
368
374
370
377
398
390
377
376
377
373
341
551
543
373
372
383
394
407
418
441
454
453
444
404
374
368
362
365
360
366
389
396
377
384
392
399
378
539
627
397
393
396
402
403
423
432
441
439
420
383
349
341
336
339
342
364
367
344
337
337
336
338
262
662
340
323
325
328
344
351
371
384
390
386
347
316
303
295
301
308
328
329
308
304
304
309
298
331
629
307
291
293
299
311
329
345
360
367
354
320
296
295
297
298
305
322
318
304
304
308
316
297
423
584
311
307
317
331
345
368
393
407
419
423
382
360
357
354
359
363
367
373
372
329
340
354
350
273
664
376
346
321
332
330
342
353
359
385
371
354
318
299
304
314
309
317
342
333
320
305
305
308
288
445
535
319
310
317
327
323
343
370
373
390
376
351
325
333
339
340
343
361
370
349
340
343
350
357
275
662
392
375
389
394
402
418
442
453
462
450
424
389
381
372
379
377
384
395
390
372
368
364
364
332
517
513
356
351
351
358
355
368
385
397
404
390
363
340
336
338
331
326
330
339
318
305
301
306
304
225
643
348
313
303
320
319
333
348
360
374
378
359
327
313
303
315
310
321
343
333
318
316
320
326
306
432
549
330
318
322
336
339
359
379
390
388
383
349
322
318
319
323
333
358
352
338
337
346
345
311
533
552
339
328
331
340
351
362
386
392
398
386
351
330
332
336
339
355
372
363
345
347
349
354
277
658
470
364
366
369
383
397
418
434
446
448
422
382
369
373
364
371
369
389
398
384
371
362
361
361
270
662
389
336
339
345
348
356
360
368
377
365
338
297
285
283
285
288
292
297
312
307
288
288
290
290
238
542
377
297
294
298
311
318
330
356
377
394
387
354
351
354
349
354
352
344
352
362
340
337
332
336
330
289
620
336
317
318
327
334
358
384
416
428
425
398
369
352
351
355
358
379
397
387
379
377
377
371
290
658
433
346
342
344
349
372
388
400
407
407
383
359
337
328
329
334
355
373
367
356
362
370
378
298
662
477
360
344
348
346
352
364
379
386
388
367
327
311
307
304
306
317
324
304
290
294
294
300
221
659
328
307
313
325
339
352
371
392
405
401
373
347
344
346
348
348
362
369
351
341
341
343
345
281
659
357
337
342
348
357
366
368
375
374
361
327
291
281
286
297
297
307
332
335
313
303
308
308
260
496
422
296
301
315
338
359
387
413
429
436
420
386
365
367
378
385
395
414
408
380
376
370
368
311
623
524
348
338
336
344
347
359
370
377
386
375
351
336
340
335
342
346
356
348
326
328
331
329
297
529
540
334
326
329
336
340
357
373
387
397
387
360
342
343
344
341
337
338
342
345
323
316
318
316
312
371
562
317
305
311
322
329
342
358
372
382
378
355
329
317
318
319
318
317
322
343
336
328
329
340
346
265
660
408
344
340
355
382
408
435
462
471
465
435
378
337
319
317
318
326
339
364
389
377
373
366
358
337
357
601
341
342
362
385
398
411
420
421
414
399
356
318
307
314
325
335
348
368
363
333
333
324
324
263
574
410
327
322
343
353
364
383
399
403
406
387
351
330
323
328
331
342
365
368
354
353
358
359
337
490
572
360
349
349
358
362
375
396
406
408
393
358
333
334
339
352
355
367
388
377
368
369
368
366
268
661
378
341
338
344
349
357
372
393
400
398
372
335
320
319
325
325
328
340
354
341
335
338
339
340
288
652
356
347
349
354
360
363
372
379
384
382
355
315
314
322
336
353
362
357
362
356
319
306
295
287
245
479
399
297
298
306
313
324
330
340
349
344
328
293
278
276
289
298
306
330
336
320
315
302
298
289
236
627
305
288
294
313
321
343
361
380
383
372
347
311
311
316
321
334
355
363
350
342
338
335
335
248
661
343
323
321
332
341
354
373
391
397
387
361
331
325
325
330
330
344
362
352
345
346
351
350
271
661
413
353
350
360
368
373
392
407
415
421
395
361
348
348
351
353
353
363
379
374
364
361
364
366
296
659
438
360
358
365
370
375
390
408
420
423
403
368
350
348
350
351
352
356
366
372
359
355
359
362
348
440
588
364
356
364
373
379
393
410
427
437
429
397
372
368
375
374
375
377
378
396
393
381
379
378
378
345
551
508
355
337
335
326
331
339
356
371
377
359
326
295
291
297
285
291
293
308
306
295
282
294
294
259
501
412
291
287
289
299
308
323
341
358
354
335
301
281
282
284
290
307
330
327
316
318
327
334
261
654
429
336
336
343
350
364
387
411
425
424
403
367
353
350
348
356
373
380
365
362
369
372
377
367
662
380
366
368
373
375
389
403
421
429
419
384
355
347
347
349
357
373
367
354
351
357
361
308
608
493
352
340
347
350
357
368
388
403
408
392
356
337
337
334
329
335
346
340
325
323
330
335
291
571
451
338
328
333
335
340
351
369
387
399
389
357
343
344
343
344
347
354
353
338
338
339
343
328
438
560
348
341
347
353
357
363
379
393
406
397
372
353
349
353
358
364
372
369
353
356
357
362
326
564
496
368
364
366
370
373
380
398
410
414
395
363
340
337
337
341
347
352
346
331
331
329
330
247
648
366
331
328
334
340
345
357
371
387
381
357
334
313
311
308
315
324
323
300
295
289
290
273
368
468
279
264
267
277
279
296
319
332
339
325
291
269
262
263
280
297
297
277
288
294
299
288
412
526
315
307
306
320
333
367
351
364
366
357
321
303
306
317
348
389
430
434
445
448
449
390
660
649
395
384
395
395
413
435
454
461
467
448
402
382
379
378
391
399
377
360
353
351
342
221
663
359
323
320
330
335
335
350
359
372
369
344
323
325
330
341
354
369
347
332
322
315
308
197
660
337
311
309
326
339
349
358
370
373
371
352
326
322
334
349
367
387
400
391
391
393
401
386
471
648
394
396
389
398
398
407
422
426
428
420
387
358
341
345
337
339
345
339
323
320
320
320
267
564
401
315
304
306
310
316
336
351
360
362
349
316
301
297
299
303
323
323
307
305
312
319
306
396
560
329
320
331
343
348
364
382
391
396
387
354
333
328
324
329
348
355
343
341
342
346
340
358
625
334
323
331
344
354
366
384
397
401
392
346
313
302
298
309
322
345
354
349
346
346
344
300
515
473
323
317
331
343
353
363
377
389
393
374
335
314
310
313
320
329
346
357
344
346
348
355
336
461
549
345
341
343
350
361
370
383
403
410
388
363
331
328
329
322
323
327
339
332
319
311
317
317
239
644
359
303
298
301
308
310
324
347
347
345
326
286
267
263
266
273
278
302
311
298
297
305
310
295
429
546
324
320
339
356
374
388
406
415
421
415
377
349
349
351
354
363
379
388
373
361
361
360
359
402
650
362
360
369
374
383
395
416
429
434
421
383
354
347
344
340
341
339
353
360
349
342
347
349
349
292
660
352
334
339
349
361
370
389
410
418
412
385
352
339
335
339
340
344
339
351
373
359
354
356
354
354
350
654
336
322
329
325
340
356
373
395
403
393
360
320
312
302
302
299
301
303
308
322
337
327
330
331
334
297
501
519
325
311
314
321
326
342
362
376
378
371
341
312
310
305
309
311
311
315
325
338
325
330
331
336
317
472
549
330
324
332
337
351
363
385
404
413
402
374
346
347
350
354
358
367
371
376
399
409
402
409
414
420
346
663
555
409
405
408
415
419
429
447
458
463
443
401
382
376
370
370
367
365
363
360
379
373
364
365
364
362
266
661
391
341
338
348
350
354
371
386
394
404
371
335
317
308
301
302
303
300
286
299
296
282
283
289
295
220
617
366
303
296
306
330
339
369
387
400
404
389
348
331
335
340
343
342
355
366
365
346
343
339
335
302
521
527
326
321
320
337
350
376
404
411
418
404
380
361
352
346
349
356
375
379
359
351
351
349
338
390
657
335
325
327
333
339
358
372
382
385
366
329
303
302
304
307
311
324
326
305
297
296
297
289
366
606
311
303
314
325
334
349
365
370
373
360
323
301
304
306
315
323
336
352
339
328
329
332
334
243
662
360
335
338
347
357
369
384
402
415
410
381
347
337
339
339
339
340
343
358
358
344
345
350
354
310
581
525
349
341
348
355
361
375
391
400
407
395
362
339
337
339
338
333
337
337
342
353
362
346
343
341
342
297
546
482
330
324
327
336
341
350
371
386
402
394
361
337
333
330
330
325
322
320
313
317
337
334
333
344
356
365
280
663
394
368
368
374
377
386
400
417
433
440
423
390
376
369
368
364
359
359
366
371
354
344
342
342
343
303
655
349
332
336
345
348
352
364
376
383
379
352
322
316
316
322
324
324
335
349
336
331
333
333
334
244
659
341
313
310
319
319
323
334
347
357
356
333
305
287
286
291
289
290
310
307
289
286
288
291
288
351
519
303
286
297
302
323
334
355
368
373
361
328
298
289
286
282
295
316
316
303
302
310
319
314
317
636
317
309
306
314
333
351
366
384
389
378
344
321
311
313
323
343
366
361
351
352
361
364
267
664
456
356
352
357
367
377
396
424
435
436
409
372
358
353
355
361
381
384
368
367
365
364
346
464
651
350
337
337
348
354
363
379
388
394
380
335
312
306
303
307
310
328
333
318
319
324
330
308
475
577
341
336
340
351
355
372
391
398
402
387
354
332
332
340
342
352
358
365
383
374
370
372
377
383
295
663
410
387
390
404
414
427
453
473
489
493
472
444
434
436
442
447
448
451
461
471
464
455
454
455
451
359
664
464
419
414
418
420
423
433
444
448
443
409
369
353
347
336
329
325
324
331
327
315
312
315
316
263
534
400
294
283
287
292
299
307
329
346
353
340
311
288
295
291
292
297
310
322
305
302
311
317
326
261
658
349
339
334
342
348
363
366
382
387
383
345
324
318
315
309
315
324
325
304
300
294
302
289
298
579
291
278
284
288
301
308
333
341
347
341
314
302
308
323
343
378
403
402
383
375
369
373
268
663
430
347
339
348
359
366
383
392
398
396
371
339
336
342
349
362
385
375
350
342
332
324
270
558
502
310
308
322
342
358
373
391
396
394
368
331
317
317
322
328
340
359
347
337
338
337
335
214
663
337
316
309
319
331
343
360
381
392
395
374
352
348
351
357
355
368
374
350
333
323
322
329
265
662
349
345
353
362
365
367
375
388
388
390
363
338
330
330
325
320
324
318
286
283
287
298
300
401
567
349
347
356
367
374
384
399
407
415
408
379
353
345
345
349
359
373
362
344
341
338
341
268
651
431
332
326
333
347
359
375
393
402
405
390
358
335
330
325
325
327
345
339
330
335
341
343
267
660
391
318
313
323
334
346
357
373
381
387
368
340
325
323
326
329
341
361
352
351
359
363
370
291
662
395
370
368
374
381
386
396
410
423
432
410
378
369
367
366
363
369
366
345
336
331
326
303
486
447
325
318
322
324
329
343
354
364
361
350
320
289
284
293
301
314
322
302
298
306
308
298
402
519
315
308
322
339
360
370
386
395
399
391
356
336
327
330
342
366
370
355
356
359
362
307
600
477
350
344
353
363
373
391
412
427
427
416
385
378
382
382
396
411
416
398
394
398
391
352
578
552
381
377
382
387
391
398
412
418
420
398
367
352
350
352
358
359
366
375
345
333
331
327
298
474
453
313
304
310
317
324
338
350
363
361
344
305
285
279
277
280
284
287
308
316
304
306
307
314
271
545
444
320
318
321
335
354
372
402
421
434
422
393
372
369
367
367
368
384
378
356
354
355
358
335
487
594
348
336
336
345
350
363
380
389
391
372
336
314
314
316
316
321
324
338
349
339
331
335
336
330
366
626
333
328
332
341
347
356
375
391
397
390
355
331
327
327
329
333
337
339
344
363
355
348
352
355
352
268
661
362
344
346
355
362
368
382
398
410
402
376
345
339
340
342
344
345
349
346
347
362
344
339
338
335
342
284
650
338
318
321
322
332
341
357
374
382
365
336
297
285
281
284
285
299
301
313
335
332
321
324
328
328
232
661
347
329
327
338
352
374
403
414
427
418
388
351
339
339
336
341
353
373
378
360
358
364
371
344
499
635
346
336
340
349
352
372
392
405
414
392
352
325
321
321
320
319
331
355
351
335
338
337
336
239
663
395
315
307
307
315
327
343
366
377
383
352
318
304
309
309
316
313
318
340
344
329
326
331
336
304
520
563
340
336
345
356
363
375
394
406
413
392
356
330
330
331
339
343
346
349
364
373
358
352
355
358
319
527
560
348
342
353
358
371
384
404
417
421
402
363
336
335
332
336
336
337
339
361
358
342
340
342
341
261
658
418
333
331
341
349
359
377
397
410
409
389
354
335
333
334
339
345
355
376
373
363
363
369
373
321
613
544
373
374
378
390
400
416
436
445
450
427
387
365
361
358
358
356
371
384
376
371
371
376
376
284
662
388
364
362
369
378
385
399
416
428
423
393
360
352
352
355
360
372
383
369
363
366
366
371
348
659
372
357
356
362
369
372
387
404
407
402
367
338
332
329
330
332
338
350
336
323
320
318
316
220
655
339
295
287
298
308
324
338
357
367
357
335
290
273
269
276
286
288
316
338
332
325
334
341
343
257
663
368
349
355
372
390
412
438
458
466
458
423
388
375
375
371
382
409
404
384
374
376
372
358
422
658
349
341
340
351
358
377
392
400
398
373
330
301
298
294
296
299
322
322
303
297
297
298
267
463
514
285
279
284
303
315
330
351
367
374
358
324
300
295
296
302
309
331
345
333
330
335
338
340
317
661
347
338
345
356
366
379
403
419
425
423
383
357
350
353
358
361
363
378
387
372
368
370
374
371
362
661
368
355
362
370
373
388
409
420
432
426
395
364
358
359
361
363
368
384
388
371
370
371
372
343
499
570
359
350
357
363
369
381
397
413
417
402
370
342
338
338
337
339
341
353
354
338
338
339
342
298
540
459
340
329
339
348
349
363
382
391
401
386
351
322
322
317
322
322
328
345
333
324
323
333
333
244
658
360
319
313
324
328
337
360
370
384
381
355
321
302
304
303
308
326
342
332
311
305
306
319
224
661
348
313
316
326
336
351
371
390
397
397
374
338
323
323
324
337
363
356
344
339
343
347
313
560
571
353
344
349
362
372
388
412
422
424
403
362
343
341
342
350
368
368
355
347
347
347
346
366
660
342
337
340
348
360
375
397
413
420
412
379
353
355
359
364
374
396
390
378
377
379
381
287
663
486
365
366
375
386
395
407
421
429
426
401
363
347
345
347
349
346
353
370
355
344
344
346
342
234
663
373
328
327
340
348
356
376
396
401
400
372
336
323
318
320
321
325
328
340
346
334
333
335
334
285
556
470
329
322
328
337
343
358
374
389
395
381
352
330
329
328
331
328
329
337
352
343
337
340
343
346
260
661
360
334
337
343
351
353
373
391
399
401
376
343
336
336
334
339
335
329
338
348
331
325
333
330
330
314
632
341
327
328
337
340
348
368
382
391
381
357
318
310
301
305
306
305
310
329
322
312
311
313
317
244
627
376
306
304
309
320
333
348
369
380
377
361
325
306
306
307
315
324
344
356
344
338
337
345
346
265
662
357
336
338
350
362
373
396
413
419
415
386
356
347
350
356
361
374
396
398
386
392
401
402
369
610
651
409
411
422
430
437
453
473
486
491
470
432
410
404
400
395
393
383
392
402
384
370
374
373
371
275
662
375
344
339
341
344
352
364
378
386
387
359
323
311
312
314
314
313
311
323
341
333
330
338
345
348
264
661
362
343
343
354
362
374
393
418
432
435
413
382
371
372
372
371
367
366
372
389
386
372
380
385
384
307
661
438
357
347
350
354
354
366
386
399
402
381
342
320
314
307
312
302
301
307
327
325
308
316
314
312
247
586
372
297
291
300
311
316
338
354
361
364
348
309
283
282
282
291
300
311
337
343
329
329
336
337
322
417
605
334
320
326
334
348
363
386
404
406
395
359
333
323
322
328
331
338
361
363
348
349
357
357
338
490
616
355
356
361
374
382
394
418
435
441
432
397
375
368
370
370
371
368
371
389
396
381
380
383
387
370
454
648
370
364
367
374
375
385
402
416
422
415
383
352
342
337
336
335
331
328
329
340
355
344
342
346
344
342
295
655
337
318
322
327
327
334
351
369
377
379
352
315
298
300
294
291
291
292
296
307
319
301
304
301
299
275
460
447
299
285
289
297
310
324
349
365
365
354
321
298
291
298
304
308
315
327
346
343
333
332
336
341
261
658
421
337
332
338
347
356
374
395
406
412
390
356
336
332
332
335
338
351
369
362
353
355
360
361
269
662
426
355
350
361
369
381
395
417
432
432
406
370
354
351
351
351
354
364
380
373
366
369
372
373
287
662
445
368
367
373
379
389
404
427
437
444
420
384
366
363
363
363
363
365
380
382
368
364
365
363
346
441
596
347
339
346
351
357
367
388
405
415
408
374
343
334
334
330
331
335
345
337
322
317
307
304
299
326
565
300
289
299
303
314
324
343
363
362
346
319
284
284
287
291
301
312
333
345
325
321
326
330
334
282
661
350
335
345
353
373
405
423
443
453
450
423
392
388
383
390
393
424
429
417
414
419
418
416
402
664
406
401
409
425
440
459
483
496
498
482
445
406
395
387
382
386
401
387
366
362
356
350
303
573
539
318
308
312
317
324
342
358
373
378
354
319
296
295
299
295
302
319
320
305
299
305
306
288
414
551
304
296
303
314
324
342
366
378
386
374
339
312
308
311
310
316
329
343
332
322
322
323
326
229
661
365
319
317
326
336
348
368
389
401
402
378
343
325
320
319
317
318
331
343
332
326
329
331
326
230
661
342
303
302
316
319
330
350
364
376
372
350
317
304
303
306
305
309
320
323
309
308
312
316
320
296
629
339
322
328
336
346
357
377
390
404
399
370
345
337
341
346
346
360
373
362
351
352
352
357
284
658
422
355
354
364
371
384
400
422
433
438
420
390
377
379
383
386
395
415
415
406
410
417
418
411
487
659
416
414
420
431
436
448
466
476
482
467
432
405
397
394
394
393
398
406
386
377
375
370
370
282
661
376
349
343
349
360
368
387
400
404
399
368
333
315
310
307
305
316
312
292
288
280
283
273
317
531
286
269
271
278
291
310
325
340
347
332
295
273
269
274
286
301
320
315
302
304
309
310
240
630
405
315
313
326
340
358
383
406
422
430
416
386
370
369
373
376
395
393
366
357
360
353
355
273
664
363
349
350
354
363
369
387
393
402
394
363
338
331
336
339
340
357
354
336
328
323
328
326
262
661
326
312
311
318
326
341
355
372
376
370
344
315
310
311
316
313
314
331
331
312
310
314
319
313
373
632
322
308
313
323
332
342
365
380
390
382
354
329
327
331
331
330
337
355
350
339
343
350
358
341
450
652
360
361
366
382
393
408
431
448
456
451
422
395
397
397
400
404
412
432
419
400
404
411
414
372
630
648
411
409
413
421
427
439
452
461
467
457
419
394
389
390
387
382
383
397
393
372
371
372
370
350
462
607
354
343
345
349
352
357
367
374
376
367
334
308
302
303
303
302
303
310
320
305
300
305
310
311
284
616
325
307
309
315
327
324
341
355
359
353
332
300
292
295
297
301
300
316
324
305
301
310
310
309
224
646
329
296
297
305
313
325
340
357
371
366
349
316
301
300
303
310
317
341
340
327
331
338
343
322
472
584
347
338
349
356
362
382
399
417
422
413
381
358
355
355
358
372
391
377
361
362
366
372
309
633
525
351
340
342
350
362
376
399
404
403
387
353
338
337
339
344
363
377
372
359
366
371
378
299
663
498
369
365
371
382
393
411
431
443
442
424
386
371
369
368
367
370
383
392
377
373
370
376
374
295
664
375
356
355
364
372
386
408
427
438
435
406
383
375
375
370
366
365
380
375
360
357
364
369
352
491
626
370
365
367
373
376
385
401
411
419
409
376
354
353
354
356
355
360
370
360
350
349
349
355
288
629
419
329
320
323
324
331
345
363
376
382
362
324
304
292
283
283
288
301
286
281
283
284
288
209
602
341
278
274
275
290
298
317
330
343
347
324
287
270
269
273
291
314
324
314
313
320
338
350
263
664
390
368
377
388
402
429
447
462
470
463
433
406
393
391
396
414
434
428
410
406
409
410
355
657
627
379
374
376
386
393
411
421
430
430
408
374
351
350
353
356
379
383
363
354
353
354
353
251
663
353
333
328
337
345
358
376
390
392
386
353
323
310
316
316
323
345
350
328
325
328
327
328
320
661
324
317
317
327
340
351
372
384
384
373
340
313
309
316
317
323
341
347
332
328
330
335
336
256
663
344
330
333
347
357
372
389
409
415
409
382
353
346
352
351
354
365
382
375
365
364
369
370
301
652
494
359
355
363
375
383
396
413
426
434
417
383
366
364
369
370
369
375
383
365
358
360
365
367
286
662
384
362
360
361
363
369
378
390
399
399
375
346
335
335
332
331
331
335
334
316
322
323
329
320
395
555
330
320
327
329
339
348
363
381
387
378
346
317
309
314
307
307
322
331
320
311
312
312
315
207
661
322
288
283
292
304
321
340
358
369
370
345
322
310
316
322
338
365
372
358
353
362
372
378
327
663
393
384
387
397
406
419
435
447
452
442
412
382
373
376
376
393
409
403
383
375
368
368
274
663
455
346
346
350
362
373
395
408
416
414
383
345
325
323
321
327
343
356
347
343
339
342
337
274
663
336
321
322
331
346
363
383
401
412
403
365
331
325
320
324
324
340
358
349
340
345
347
349
240
662
383
320
319
330
340
351
369
389
405
402
382
342
321
321
318
323
327
339
363
363
354
362
364
364
291
660
476
357
355
368
375
389
405
422
434
438
418
382
364
357
359
357
359
361
374
387
374
367
370
369
365
293
662
362
349
349
358
367
376
393
407
414
412
383
352
339
340
342
344
345
347
355
370
359
352
352
354
353
261
662
366
340
338
351
356
365
379
392
400
400
379
347
333
336
336
337
337
341
347
360
348
337
346
344
341
261
660
350
329
333
335
345
352
368
389
389
383
358
318
302
297
293
298
295
307
326
326
307
296
295
292
249
495
413
277
275
284
298
314
331
347
355
357
336
294
266
255
252
257
269
300
306
295
304
312
313
314
298
649
316
307
311
327
341
365
382
402
400
391
358
332
325
324
331
349
376
370
355
350
351
355
317
587
605
364
365
371
385
395
412
429
438
440
420
383
368
373
380
388
406
422
408
396
397
402
404
292
664
498
406
406
415
427
442
461
475
477
473
442
403
393
393
390
390
397
400
378
364
361
358
354
274
664
350
335
335
347
356
369
389
406
412
404
371
342
337
344
348
353
364
385
383
372
372
378
377
334
566
581
353
348
352
365
377
393
411
425
431
416
383
359
355
354
359
358
361
378
382
370
368
371
373
362
438
646
370
365
368
379
383
393
409
424
432
421
385
359
346
343
340
334
331
343
340
323
319
316
314
307
335
568
306
287
287
288
296
309
330
346
351
348
315
284
275
271
276
278
293
307
292
291
293
299
297
206
658
329
292
295
301
313
325
348
368
379
382
358
333
318
322
326
336
358
366
353
347
353
355
360
345
662
365
360
361
371
383
400
421
433
438
431
393
365
356
355
360
375
389
374
362
368
370
372
264
663
417
353
348
357
365
378
393
408
417
414
387
353
349
347
351
354
363
374
361
353
347
351
354
253
663
371
340
340
341
350
364
383
400
407
397
365
332
316
316
315
311
317
331
333
321
322
325
328
304
477
534
332
321
326
334
343
358
383
399
405
392
361
339
338
343
343
339
339
348
363
357
349
354
361
362
272
662
402
348
349
356
365
375
396
415
432
434
414
380
365
367
367
368
371
369
372
384
381
370
367
372
371
324
585
501
350
343
347
354
357
373
394
408
404
390
350
323
319
315
312
313
313
316
332
336
323
318
320
320
307
356
586
307
296
301
309
322
343
364
386
389
380
343
316
310
311
314
317
325
338
360
357
347
349
359
361
297
645
507
355
350
357
369
382
395
420
430
438
418
383
366
366
371
372
373
378
382
394
404
388
384
385
386
377
412
660
370
362
362
371
379
387
409
425
430
421
387
359
354
351
350
347
349
347
347
345
349
368
357
352
349
348
345
273
661
347
326
325
333
340
348
368
389
402
402
378
347
340
340
343
342
346
350
351
350
353
371
379
364
364
364
364
330
524
533
358
347
357
356
364
377
391
406
412
396
363
333
321
319
322
320
319
317
322
336
339
323
330
330
331
303
437
538
314
301
311
320
329
349
372
390
395
378
342
313
308
309
314
321
326
341
360
348
336
340
336
337
232
662
381
323
320
323
333
345
367
389
399
399
369
335
322
320
318
326
333
348
363
353
346
348
350
353
254
663
370
343
341
350
357
371
391
414
425
422
392
363
352
352
355
357
362
379
391
381
378
384
390
392
291
663
437
383
380
387
394
402
416
433
442
438
410
373
361
359
356
354
354
357
369
376
362
357
360
361
359
312
662
355
339
339
348
355
363
379
398
407
401
372
339
332
334
333
337
337
340
353
358
342
339
342
339
330
400
608
337
328
333
342
349
358
374
392
397
393
363
335
329
330
332
338
334
341
358
357
344
349
352
352
308
542
472
330
324
327
334
340
354
375
392
399
382
349
320
312
312
311
308
321
337
329
313
320
325
325
253
621
399
313
311
324
334
342
365
381
397
393
373
339
316
310
314
314
325
350
348
334
337
341
345
303
560
535
338
335
338
349
362
379
400
411
414
397
360
338
333
334
339
355
368
356
348
348
354
354
251
663
394
346
345
354
363
380
399
420
436
440
418
391
388
393
397
407
425
428
417
411
415
419
414
406
664
407
405
402
409
414
420
432
441
449
436
396
373
371
379
380
385
394
382
363
353
354
350
280
650
459
358
360
378
391
397
394
410
429
455
433
403
388
373
361
361
373
385
339
335
326
337
236
655
347
267
259
265
273
281
304
318
322
317
289
255
244
241
256
269
278
265
261
270
278
283
233
660
322
316
331
358
386
412
447
468
478
468
425
383
355
344
336
347
350
343
341
350
354
361
261
663
378
346
339
347
356
372
385
393
401
401
359
320
308
313
321
330
335
362
372
358
362
363
355
327
529
526
344
328
321
318
329
343
351
356
358
343
305
281
272
277
274
287
285
292
288
293
293
289
284
294
288
326
573
293
275
287
299
314
341
369
394
413
425
410
388
388
392
399
398
389
389
395
387
391
400
412
411
430
664
424
417
416
423
424
428
444
456
460
453
423
398
393
400
405
409
407
415
417
407
390
386
386
390
292
664
434
391
384
385
384
383
389
402
408
408
394
365
358
359
357
341
330
316
310
291
274
259
265
272
212
591
364
292
286
282
281
284
291
312
318
327
313
288
271
272
280
285
289
299
319
314
302
306
310
316
248
627
420
330
331
351
374
404
439
465
480
474
451
405
378
374
380
386
404
437
443
433
431
433
427
391
550
646
374
366
367
375
381
397
422
429
429
414
374
347
344
345
344
347
358
371
359
346
341
345
343
254
662
394
340
341
350
357
365
388
405
418
421
395
357
333
332
330
326
324
326
339
347
333
329
334
336
329
352
640
329
317
318
334
343
360
381
394
396
390
354
318
305
304
306
312
321
328
354
348
334
335
330
330
252
637
409
319
321
334
346
354
370
387
393
392
372
335
314
312
316
323
324
320
320
337
329
324
304
318
312
228
623
351
267
247
234
230
237
259
293
328
362
377
369
362
362
357
343
327
319
317
300
294
304
320
336
262
663
375
359
355
358
355
356
363
375
386
392
379
361
360
365
368
365
361
369
362
343
338
350
351
336
483
559
356
348
349
349
352
366
379
390
396
382
354
325
317
321
322
329
347
359
339
337
341
344
338
339
628
352
346
350
357
371
386
402
416
423
431
399
386
387
391
410
433
464
456
434
427
431
430
392
646
657
430
429
436
432
430
437
443
437
435
416
392
370
372
380
392
415
424
412
405
401
404
400
320
664
434
402
400
418
411
416
435
427
419
404
360
340
308
313
313
315
339
336
312
304
288
285
294
184
651
334
292
312
311
322
337
364
380
405
398
382
366
353
349
354
343
353
363
351
335
330
337
349
307
551
494
362
374
371
368
364
361
369
368
373
341
304
296
307
322
336
344
346
366
345
328
307
311
310
200
660
335
311
310
320
327
339
343
355
354
351
327
307
311
316
329
334
347
347
325
315
322
314
320
227
663
365
334
340
351
362
374
399
405
417
421
379
345
329
304
313
301
288
292
287
261
282
275
280
193
663
365
326
372
343
367
391
378
370
376
380
379
346
365
366
358
364
359
346
311
293
286
307
314
185
664
374
348
363
366
344
362
377
372
400
371
349
335
352
359
386
386
404
410
390
367
360
354
351
254
664
472
394
412
424
417
416
406
414
399
400
385
362
376
389
418
425
427
443
418
388
373
370
366
316
650
592
360
354
358
366
376
388
405
414
417
402
362
339
334
328
326
329
347
350
340
342
351
364
365
343
661
371
359
365
379
397
404
426
442
449
448
420
392
387
388
394
403
425
435
421
418
421
423
423
381
663
436
421
427
429
433
436
446
452
453
443
413
378
366
367
368
375
386
385
363
352
347
343
334
324
632
342
331
336
342
338
345
353
357
362
357
330
307
303
309
313
322
334
326
303
298
298
299
287
404
498
313
311
323
333
332
348
363
372
378
365
340
311
313
313
309
317
325
324
302
302
307
306
297
393
516
320
312
320
326
334
344
375
387
395
395
365
343
345
350
352
362
379
378
364
359
359
364
349
420
615
350
333
333
347
349
361
378
395
398
382
352
307
285
323
304
301
308
288
268
257
249
261
181
583
311
276
283
299
324
324
362
365
390
371
354
306
301
288
280
265
266
270
269
269
301
323
311
570
553
381
378
375
374
375
384
410
436
458
464
452
454
468
477
492
504
487
455
442
433
423
382
655
615
408
406
407
414
420
434
439
442
433
401
364
340
335
338
351
362
359
338
340
345
350
272
662
420
336
333
335
344
361
378
404
412
411
399
369
351
350
351
368
366
354
338
332
336
336
230
663
349
327
324
335
345
356
375
383
382
372
338
311
308
305
314
337
343
324
322
320
320
302
415
615
315
309
321
336
364
385
409
421
423
405
361
341
337
342
350
377
383
368
369
371
377
361
485
655
361
359
364
375
384
401
418
430
434
424
387
367
366
366
367
379
391
381
364
365
362
361
276
661
429
348
347
356
363
371
384
397
403
405
385
353
338
345
343
346
343
338
347
340
315
310
300
289
249
478
433
299
299
309
315
323
336
355
369
381
377
353
332
335
341
348
348
351
354
340
326
337
346
355
258
664
393
359
356
368
374
376
395
413
427
436
416
394
392
389
389
385
386
390
374
353
349
345
344
245
661
354
317
312
319
318
319
334
340
340
334
301
264
247
244
254
251
258
280
272
259
260
262
263
166
623
300
258
266
274
288
305
329
349
359
359
342
312
301
313
320
341
365
375
361
364
371
372
366
430
657
372
368
374
384
400
416
441
455
464
449
419
389
386
377
388
393
403
396
383
384
387
389
313
661
509
346
366
344
350
344
360
363
374
361
340
303
279
306
300
310
297
358
368
370
368
355
357
290
539
446
311
316
333
388
440
463
483
509
493
460
381
320
288
277
285
291
324
361
378
385
386
386
370
281
623
382
298
292
316
334
367
386
404
416
410
388
326
297
309
308
296
310
326
349
361
347
343
343
336
279
570
481
297
291
300
316
335
369
394
409
411
391
358
343
342
344
340
358
384
389
382
380
390
392
361
552
639
371
364
363
367
378
399
425
431
435
418
387
365
367
366
366
362
364
376
379
363
359
364
363
350
446
620
356
344
349
354
365
375
398
408
414
405
368
343
339
338
338
341
338
338
357
359
344
337
347
343
303
523
473
335
329
332
