304
294
291
295
310
324
343
357
363
343
319
296
304
303
300
306
314
314
317
326
317
315
318
320
197
663
366
303
298
295
305
317
334
348
360
359
330
306
302
297
299
303
301
303
311
312
318
310
307
307
306
278
651
297
288
292
295
303
315
338
355
355
349
314
301
294
296
295
300
306
310
322
314
312
316
314
308
361
623
317
291
306
307
316
335
357
360
369
352
331
312
307
314
317
319
327
329
339
326
326
317
328
252
616
492
304
301
299
307
319
332
352
369
367
340
311
304
306
308
308
311
314
321
334
320
317
312
315
304
369
655
297
296
295
300
304
329
346
356
365
348
320
300
298
300
294
308
299
304
307
320
307
299
306
309
199
660
314
282
282
288
307
304
329
345
359
349
321
302
295
299
294
303
306
313
327
312
315
314
319
263
586
475
320
302
305
310
324
340
361
370
373
345
320
309
316
307
314
316
325
328
333
321
319
323
317
262
662
310
295
296
297
313
323
340
357
366
354
327
311
307
307
308
311
319
321
328
336
319
322
323
321
193
662
323
290
288
291
298
311
331
344
357
350
326
299
292
294
296
294
295
303
302
316
303
304
308
304
296
631
304
289
288
295
302
323
334
346
358
344
314
305
306
300
311
316
324
322
334
327
326
324
331
240
661
434
304
302
303
311
324
337
361
370
360
348
312
304
305
311
307
311
320
317
323
315
312
321
313
200
661
350
306
291
301
304
319
337
358
363
357
332
302
296
295
298
295
295
301
310
310
316
304
311
303
237
658
311
288
287
291
300
312
334
344
351
348
313
295
286
285
292
294
295
307
310
300
299
299
304
204
659
321
291
293
300
313
329
348
366
358
356
337
314
311
313
317
320
324
332
335
326
324
318
330
218
662
390
301
302
296
304
315
333
353
368
358
342
312
309
304
318
308
309
327
332
319
314
322
313
290
466
623
302
298
291
305
316
319
347
360
364
345
307
293
296
294
292
290
305
311
308
305
305
303
255
527
444
294
286
287
295
304
324
338
343
345
322
306
292
284
295
295
309
322
325
322
317
319
320
253
661
317
301
302
304
311
333
353
363
376
353
334
313
310
308
315
317
329
330
332
321
324
321
268
580
511
305
293
307
303
315
332
352
360
364
340
313
316
299
301
313
308
316
318
324
315
304
312
311
198
663
322
298
296
303
304
318
341
359
372
360
325
301
299
299
295
298
299
305
313
310
312
309
309
297
365
586
306
292
296
294
309
323
347
359
360
345
318
304
290
294
295
310
311
317
315
302
307
310
288
382
585
309
298
298
308
317
338
343
362
368
348
315
308
301
308
306
314
326
328
321
313
311
315
285
472
568
295
297
299
299
314
334
345
363
368
345
316
306
305
309
310
311
324
343
325
318
313
315
296
408
618
304
283
289
297
304
321
343
359
361
345
312
302
296
287
294
297
306
317
310
298
298
310
282
376
552
302
280
291
294
300
320
332
350
355
342
315
296
298
299
306
316
340
331
324
310
319
316
231
655
408
305
299
302
305
327
344
352
366
364
340
308
298
302
304
310
321
342
337
321
321
314
315
202
661
320
296
300
294
305
317
334
351
360
358
325
302
293
295
302
294
320
328
308
300
299
312
268
438
512
296
283
291
292
306
324
339
356
350
345
321
305
306
312
318
319
339
339
328
319
318
331
205
661
380
299
295
300
309
325
339
359
365
361
336
317
306
305
309
307
325
340
324
313
306
311
308
287
659
305
292
290
301
307
330
344
363
372
357
323
304
300
307
303
306
315
331
315
305
304
304
282
409
535
289
286
286
290
305
322
333
349
347
339
318
290
280
286
291
307
312
309
285
286
293
289
258
645
302
283
285
295
306
319
341
349
352
343
324
315
302
305
315
331
346
332
308
310
311
312
294
659
298
296
287
296
303
319
344
354
356
346
316
303
309
304
308
324
335
322
312
319
305
290
307
657
283
276
270
289
282
300
336
337
334
324
288
290
302
284
285
291
316
314
291
291
295
302
201
661
363
293
291
294
313
323
340
364
367
359
343
326
320
321
321
324
329
349
345
334
331
329
326
212
661
327
296
296
297
309
326
329
355
354
350
334
318
314
317
318
326
344
339
324
315
319
309
211
661
380
306
294
303
309
326
340
353
360
360
334
310
307
307
306
312
340
337
313
309
312
308
207
661
381
294
294
297
307
309
339
349
359
357
328
313
297
300
306
312
341
329
315
304
306
310
192
662
324
293
290
285
295
313
331
338
351
334
311
288
278
290
288
303
318
307
302
286
289
290
301
617
286
284
285
291
299
318
336
349
351
332
315
298
302
301
313
339
337
316
315
320
312
203
662
354
300
299
302
310
325
347
357
366
359
336
319
309
338
307
335
346
330
315
315
315
287
489
561
300
297
296
303
317
334
349
361
358
337
316
305
310
305
318
335
337
317
303
317
311
201
662
363
297
290
293
301
313
337
354
367
350
329
300
297
305
297
308
332
330
313
306
305
308
212
661
323
280
292
293
300
319
342
352
361
346
318
296
294
302
296
307
317
324
300
297
293
301
188
659
309
278
278
280
294
311
328
337
347
338
309
292
292
285
293
317
323
306
303
295
300
228
607
390
294
282
293
296
315
330
352
353
347
346
317
310
306
303
308
337
346
332
320
326
317
229
659
437
298
296
300
306
321
340
361
367
367
346
312
307
311
308
315
335
349
332
323
310
312
251
601
462
292
285
295
306
308
329
346
357
356
344
304
305
300
301
298
306
329
331
313
310
319
317
202
662
327
296
287
304
300
320
343
350
364
359
322
300
299
298
297
305
331
327
313
297
306
298
187
661
320
290
276
287
292
313
326
348
356
344
316
298
287
289
290
299
317
329
308
296
299
294
213
626
392
285
277
281
280
302
322
345
348
346
329
299
284
289
288
301
310
331
314
300
301
301
272
445
512
288
285
290
300
300
318
339
341
358
338
312
296
299
298
301
311
330
320
308
303
306
295
328
656
294
291
290
298
304
320
345
360
378
366
336
322
322
314
319
327
344
337
321
315
314
312
314
643
302
298
294
298
310
323
344
355
357
347
323
300
292
297
299
320
326
312
301
294
291
243
509
425
283
274
284
278
302
311
335
332
335
317
301
295
297
299
308
335
341
319
310
314
314
198
661
327
289
288
300
305
315
337
356
364
353
334
314
311
310
313
320
348
334
313
307
312
287
418
618
300
286
297
298
305
328
337
359
350
343
312
300
304
303
304
323
342
316
297
301
303
253
530
491
290
281
288
286
303
323
339
350
357
335
311
300
299
307
304
312
330
325
301
327
304
295
282
648
291
273
274
277
289
307
316
332
341
317
298
273
278
282
289
317
314
294
286
285
283
180
659
309
278
285
279
298
315
321
339
342
337
321
318
319
320
318
325
342
326
304
313
310
288
413
604
303
299
299
310
319
336
353
362
365
348
328
320
316
312
331
334
356
333
318
318
311
263
575
567
296
290
292
306
305
332
345
356
352
335
328
322
319
316
312
315
339
333
319
310
314
308
157
664
305
286
287
283
299
303
318
340
347
334
320
306
307
293
311
302
312
309
300
292
329
303
309
318
212
663
502
290
273
288
278
296
291
308
318
344
346
356
378
359
347
345
331
356
352
382
364
345
339
346
320
483
597
318
312
301
308
312
328
350
358
348
346
311
279
280
261
268
283
306
278
271
274
273
258
401
441
277
258
278
267
277
298
291
314
297
299
308
299
304
292
287
320
329
304
304
301
292
238
532
366
285
288
280
292
299
301
309
316
317
311
306
309
298
310
316
326
329
294
293
295
294
193
659
332
281
288
291
307
310
321
362
352
320
335
361
361
337
364
407
416
419
348
349
353
331
251
664
286
281
279
283
304
303
320
332
336
342
326
319
308
312
311
314
338
316
306
303
314
283
410
576
303
288
297
305
315
323
339
341
343
344
330
314
313
311
319
346
334
317
311
314
307
237
657
305
295
292
299
312
321
333
343
350
346
324
308
305
304
309
329
331
312
304
307
299
195
660
356
297
291
291
300
309
331
339
343
349
332
311
303
299
312
326
344
321
310
301
302
231
584
425
289
285
290
304
314
326
339
355
350
335
316
303
305
307
330
347
325
313
316
309
274
490
535
296
297
294
304
307
325
349
358
359
342
321
317
314
316
339
345
329
324
314
314
242
607
445
301
297
304
310
322
334
349
353
359
339
316
313
308
317
336
345
322
315
305
312
197
661
361
296
293
295
300
314
331
346
349
352
327
309
303
303
307
323
335
327
308
304
309
227
641
404
300
290
305
302
321
327
355
358
354
335
305
304
303
307
316
336
326
312
303
305
297
290
635
296
288
290
294
304
318
332
347
348
342
312
304
297
301
311
329
337
318
307
316
306
193
662
343
295
285
289
299
320
330
337
353
343
321
309
292
299
298
307
335
330
304
307
297
300
225
660
299
287
276
289
300
313
328
346
351
342
318
298
300
297
302
304
328
327
314
309
301
302
198
661
310
283
290
289
300
314
331
342
350
347
317
306
304
297
300
308
302
320
326
305
304
305
301
268
651
302
286
290
289
298
312
333
348
350
342
317
304
296
296
296
298
303
325
329
305
302
306
301
313
608
301
285
297
297
313
332
339
357
362
349
318
313
303
306
306
310
329
334
324
319
318
319
260
562
451
308
294
301
310
311
331
352
358
357
338
312
299
300
292
289
310
327
325
309
302
304
299
286
612
303
280
278
287
306
316
338
341
349
333
312
297
294
294
297
303
320
342
303
292
305
301
205
657
324
285
298
300
305
323
340
359
363
346
327
308
303
305
312
324
352
347
326
318
317
324
201
662
335
298
304
301
312
321
341
362
360
352
328
311
311
320
313
312
336
342
326
313
309
313
215
660
404
293
284
287
298
310
329
338
352
355
326
311
303
307
304
310
311
317
334
319
306
306
309
235
631
482
288
283
288
293
302
321
343
355
355
336
312
306
310
305
301
299
305
307
318
331
304
298
293
295
249
652
292
269
275
284
285
305
316
332
336
328
304
290
282
290
298
300
307
325
349
326
317
315
314
226
654
410
304
300
303
310
320
338
358
361
364
335
317
305
311
303
309
313
320
343
335
315
305
304
310
279
659
308
287
294
297
306
318
340
359
363
352
320
315
308
314
304
307
312
313
334
330
314
310
311
303
274
658
293
286
283
290
299
315
333
350
350
332
320
284
286
292
287
292
306
314
328
309
302
300
295
222
591
387
280
277
287
294
309
324
346
348
350
333
309
303
305
309
318
321
331
358
329
326
317
321
269
511
553
309
301
304
308
322
336
356
369
363
347
319
312
305
310
308
313
323
347
332
321
307
317
312
316
659
302
298
296
300
314
330
348
362
366
358
329
309
308
302
304
298
301
314
328
316
303
302
307
276
442
515
290
279
285
295
301
320
339
346
351
329
305
291
298
286
298
296
301
324
325
306
302
296
297
194
659
326
297
290
298
313
324
342
359
364
361
333
311
307
312
310
313
324
342
344
328
314
315
316
237
609
470
291
294
297
301
317
327
346
362
356
337
312
305
305
303
308
312
309
315
338
336
321
320
320
321
192
663
337
303
299
299
304
312
335
352
357
348
322
301
292
295
289
299
296
297
301
314
324
304
304
302
301
198
659
327
289
283
286
298
311
326
346
352
346
322
298
293
289
301
306
314
316
328
332
322
314
320
324
302
401
623
308
300
305
308
314
332
350
366
361
346
327
304
308
314
302
314
313
319
341
328
310
312
311
301
319
656
298
293
303
299
312
327
345
361
362
348
322
304
306
305
308
311
316
313
347
335
323
320
309
316
210
661
311
298
290
292
301
316
334
344
362
357
326
297
292
296
297
290
296
299
321
322
307
303
294
301
203
652
349
288
281
290
292
307
330
338
352
353
326
296
303
300
301
305
313
318
342
330
318
310
316
316
245
661
309
293
297
299
306
325
344
359
367
349
325
305
305
306
308
310
318
321
349
333
318
327
321
311
341
654
290
294
294
298
306
322
348
351
367
345
319
296
298
289
296
293
299
324
313
305
294
298
303
198
650
344
283
273
289
291
303
317
326
336
341
314
295
291
288
296
299
314
329
331
308
305
305
309
195
661
340
305
302
304
310
321
340
359
356
350
329
312
308
311
315
326
336
350
340
318
318
316
294
438
631
297
298
293
304
310
326
344
350
355
336
315
304
308
309
310
324
338
344
325
313
308
309
237
634
483
291
286
285
297
304
324
340
348
344
327
303
307
307
308
309
308
312
338
336
315
311
308
313
176
662
365
288
279
289
301
303
327
334
351
347
321
302
305
305
299
308
309
309
311
333
341
317
310
313
311
172
663
360
291
283
289
299
306
325
340
351
352
325
309
310
314
306
312
315
313
316
321
343
341
317
313
314
309
262
662
288
286
286
295
297
315
327
345
352
342
319
300
307
308
307
306
309
311
310
320
338
333
312
310
311
307
257
662
292
283
281
290
299
313
329
343
345
343
314
301
301
299
300
310
304
302
313
324
338
317
317
303
307
240
613
537
289
281
287
293
309
318
334
344
348
333
312
306
312
309
310
314
310
311
321
346
328
316
306
310
305
319
652
294
280
284
283
303
306
329
351
353
335
317
294
299
301
307
311
316
326
345
327
317
310
318
285
442
590
296
294
297
301
314
326
348
351
357
344
320
313
317
313
316
322
318
331
347
331
314
314
315
295
395
658
289
285
288
293
310
315
329
346
351
335
315
306
311
308
311
314
311
321
347
329
312
310
308
315
193
663
299
297
287
295
304
316
330
345
346
338
324
305
307
299
303
299
300
309
317
329
303
301
298
307
203
657
343
285
279
283
290
307
318
332
341
340
317
302
297
295
299
295
306
331
332
303
302
303
311
199
660
337
286
282
289
303
307
325
343
343
345
321
306
311
311
305
320
332
351
327
317
307
308
301
336
662
286
289
288
296
305
320
336
349
362
340
320
324
318
317
314
323
332
340
315
312
304
305
197
661
365
286
281
286
285
307
313
343
338
334
323
291
285
286
289
289
295
330
323
290
294
297
290
234
655
307
297
298
304
321
325
348
362
360
349
337
317
325
322
328
327
357
355
332
319
320
322
206
663
393
301
299
308
312
329
349
361
373
369
336
315
310
315
304
307
305
327
323
306
298
299
298
189
654
347
279
273
276
289
297
312
327
333
325
306
284
285
280
286
289
309
324
309
292
300
298
260
491
501
303
286
304
307
319
332
346
357
362
339
319
320
317
322
328
349
364
330
328
322
316
248
637
466
299
292
296
312
308
332
351
363
358
331
311
305
312
311
309
324
336
342
320
310
313
308
220
659
427
298
294
293
304
317
334
350
361
353
338
307
300
292
296
303
309
310
327
331
317
306
304
304
197
662
392
287
280
285
296
304
323
345
356
360
331
307
304
308
311
313
317
320
318
341
336
325
320
318
319
198
662
323
291
286
290
298
310
332
342
345
347
311
286
279
280
277
285
289
291
305
315
306
302
306
290
251
552
488
279
280
291
296
306
324
344
357
356
331
301
302
300
302
303
305
306
307
348
320
316
317
312
307
328
658
298
291
290
294
305
320
343
353
358
343
313
298
293
291
288
290
293
298
318
316
296
300
296
298
260
628
295
284
279
286
297
314
332
345
350
344
327
311
310
313
320
322
324
347
339
327
313
315
314
223
659
425
297
290
294
305
310
328
345
355
352
323
313
308
304
309
308
314
327
341
324
308
311
310
299
394
634
297
294
295
301
312
328
347
362
363
345
318
302
307
301
305
303
311
304
321
341
313
308
309
309
248
579
516
290
288
294
301
316
332
354
359
363
346
320
301
303
301
308
305
308
309
313
319
340
324
315
312
310
238
620
437
296
292
293
300
309
336
348
361
363
340
314
297
297
302
297
300
304
305
333
329
313
304
295
309
196
660
326
293
294
299
309
323
339
367
365
352
332
314
305
305
311
312
312
320
331
341
329
321
318
312
275
507
553
306
298
294
310
310
335
352
364
361
351
323
306
306
303
311
307
312
315
333
331
317
310
306
312
193
661
326
283
283
288
290
307
325
347
351
351
323
299
290
284
287
287
291
297
319
320
301
300
297
302
206
658
360
294
288
302
301
312
333
350
358
358
332
307
302
302
302
308
314
320
342
335
312
314
310
320
189
662
341
296
289
295
308
315
334
356
365
361
333
313
312
319
313
317
320
321
322
349
329
324
315
316
314
244
661
313
289
283
296
298
311
340
356
351
348
317
290
293
292
286
292
296
288
305
314
311
294
294
291
277
357
569
285
279
278
287
303
317
344
353
352
346
320
307
305
303
311
310
318
321
341
324
314
315
325
313
263
661
304
296
294
302
307
324
347
357
361
358
325
304
305
310
302
317
316
326
347
328
315
307
314
309
248
661
298
284
284
295
299
315
337
348
357
347
318
297
290
292
291
294
298
316
321
310
299
294
303
285
336
588
287
279
283
293
299
324
346
357
359
349
325
306
309
309
302
314
313
322
334
328
312
318
316
318
234
661
314
299
291
298
306
322
335
358
363
356
327
310
304
305
305
311
315
315
336
335
318
314
316
313
251
594
521
301
291
298
304
317
339
352
367
369
351
321
307
302
302
308
307
312
308
317
330
320
309
317
310
309
303
641
309
290
296
296
303
317
342
353
360
347
321
299
293
294
299
299
305
313
321
311
303
312
315
316
234
660
321
304
294
301
314
328
342
356
363
355
329
311
307
309
312
315
317
334
344
322
316
316
313
312
340
658
300
293
294
311
302
323
343
358
360
343
317
297
294
292
294
298
294
299
315
314
298
294
298
295
202
659
309
272
278
278
296
302
315
327
338
327
305
283
284
279
277
286
299
306
308
295
291
291
299
266
473
533
305
298
301
303
317
329
344
352
353
350
321
318
318
321
321
335
359
353
332
326
326
327
257
597
496
306
297
305
311
320
334
354
362
360
337
321
310
310
310
311
319
348
336
317
313
313
316
221
657
430
299
286
291
301
304
322
343
352
356
327
304
304
302
298
303
314
335
325
311
302
304
306
234
589
486
288
285
286
298
307
327
340
352
358
337
312
302
307
306
306
311
330
330
318
308
309
312
279
478
609
292
282
290
291
304
332
344
356
364
346
323
311
308
300
307
310
311
323
328
319
311
318
304
284
447
580
292
284
290
289
301
322
337
354
352
336
309
292
298
294
295
299
305
314
315
300
296
302
302
181
660
327
285
283
292
292
314
332
346
361
349
332
312
315
308
316
318
323
334
338
327
328
322
326
304
426
633
307
298
303
305
320
334
356
369
362
354
325
312
314
309
312
322
320
346
343
320
307
308
311
187
662
372
294
286
293
296
311
325
350
354
356
325
302
301
300
298
299
306
319
331
318
309
305
309
291
355
655
291
282
290
293
305
317
342
353
359
344
314
297
299
299
301
302
305
309
335
322
311
314
323
318
259
662
310
294
294
294
305
319
342
356
362
351
325
299
290
296
296
297
291
313
320
300
298
289
292
234
531
422
276
281
272
282
295
308
330
340
345
320
303
287
284
284
292
295
321
316
293
289
287
283
212
579
391
283
279
293
304
316
333
347
356
351
336
313
313
307
308
323
332
349
332
315
313
317
312
278
661
301
290
292
295
305
324
342
358
358
346
327
315
315
315
312
319
348
330
312
309
308
306
222
662
303
294
295
305
321
328
354
366
372
358
329
307
304
309
305
320
334
325
306
308
304
297
240
656
292
266
270
280
289
302
313
327
329
317
299
286
276
280
284
311
317
296
289
295
289
222
605
395
296
283
292
295
312
327
341
343
336
322
311
306
313
318
334
344
334
322
318
322
290
485
619
306
301
294
314
314
321
316
322
325
305
288
287
290
291
306
336
324
303
296
291
296
202
663
270
270
275
279
292
304
323
343
344
339
328
319
315
314
322
321
356
348
326
319
312
320
333
663
281
296
286
302
301
318
336
338
361
342
334
321
320
317
314
291
342
339
334
324
329
325
269
637
628
292
293
288
288
291
297
320
336
344
327
320
317
316
308
305
317
337
316
308
307
311
242
652
545
287
288
295
306
321
335
350
362
356
345
320
316
304
303
318
327
315
304
302
302
243
556
407
296
281
288
301
314
324
338
344
344
336
319
300
300
300
325
321
298
295
290
296
196
649
330
286
281
287
299
313
332
342
343
343
329
312
308
308
312
341
336
311
305
305
300
229
658
306
289
285
289
297
312
335
344
347
339
323
303
299
301
314
324
315
294
295
298
234
618
460
286
282
284
293
304
323
337
346
348
333
313
310
307
316
336
330
312
304
307
302
269
661
292
286
288
299
306
323
337
351
353
349
326
312
313
313
320
338
325
313
307
315
260
533
529
293
286
290
298
311
325
350
351
354
341
315
307
302
307
320
336
317
305
303
306
208
655
386
288
285
296
300
308
326
345
357
348
325
306
300
296
298
321
334
326
304
302
306
236
596
446
298
284
296
297
310
329
341
361
357
330
312
306
298
301
327
328
305
297
297
297
208
655
297
278
272
279
293
305
323
340
339
327
311
293
292
298
326
342
328
317
312
317
220
660
392
293
286
293
303
312
341
348
360
352
332
319
316
318
320
348
343
324
316
314
311
275
661
301
294
293
298
312
323
343
352
357
345
321
307
308
306
314
340
332
314
309
311
301
294
659
294
287
287
292
306
319
341
353
358
344
320
311
313
314
312
316
339
344
322
315
319
311
195
662
310
291
281
287
293
311
329
349
351
346
321
293
290
290
287
293
317
319
301
294
296
293
184
657
318
273
278
282
290
308
327
337
344
337
310
303
301
302
305
313
333
350
329
314
314
318
217
658
411
294
290
296
303
317
338
351
355
360
329
307
302
302
300
312
326
341
331
314
307
306
244
584
510
293
285
291
295
308
323
347
359
360
339
311
303
300
300
301
301
306
332
321
305
298
302
289
354
595
288
286
278
290
299
316
340
347
353
336
310
292
293
291
295
299
300
323
322
300
301
302
297
263
652
308
293
297
303
316
329
349
360
368
353
331
320
312
315
314
321
335
359
342
322
323
318
293
450
637
296
291
298
304
306
334
346
356
357
341
315
308
299
304
306
308
310
334
339
321
309
313
316
189
663
332
299
293
301
301
317
339
347
367
359
333
308
301
297
298
299
303
304
311
334
319
310
309
310
232
612
411
295
287
289
297
313
341
353
363
359
338
313
298
303
299
308
311
312
314
342
326
314
310
312
294
383
653
294
295
291
297
312
323
345
357
362
353
321
308
303
303
304
310
308
313
331
334
316
308
311
308
199
662
312
289
290
294
303
320
338
356
365
357
330
303
304
299
301
299
302
302
307
326
327
304
305
305
299
242
658
297
286
280
287
295
311
330
347
354
345
315
292
286
288
289
294
296
305
324
333
314
305
311
310
189
661
335
287
287
292
304
315
333
355
358
360
333
309
304
305
304
310
310
316
334
338
318
308
313
315
188
662
354
294
297
301
308
322
340
357
365
364
341
315
304
306
302
303
306
305
316
332
315
301
306
303
233
580
410
291
278
288
292
299
321
342
352
346
336
306
287
291
291
292
293
306
327
317
291
293
297
290
268
641
303
288
290
299
310
324
350
357
358
348
325
308
310
307
311
320
335
347
335
319
313
314
284
461
584
298
291
289
301
311
331
339
356
359
335
315
304
304
308
307
320
347
339
319
308
312
310
176
663
315
291
288
300
304
316
340
350
361
354
332
312
310
309
315
308
314
345
327
312
309
310
314
231
662
301
290
292
303
293
319
348
358
360
356
329
310
304
307
305
310
311
340
324
308
308
309
306
271
661
297
287
289
296
299
312
345
355
377
331
316
297
285
273
270
275
315
310
287
299
290
284
166
656
303
278
266
279
285
300
310
328
335
330
319
300
309
334
314
334
354
337
315
288
299
301
254
660
300
295
293
300
311
324
343
353
356
347
319
303
305
305
317
342
340
324
312
307
321
240
574
546
310
288
294
305
311
338
349
357
360
327
314
316
305
312
309
327
340
320
324
308
305
278
480
601
290
280
292
298
311
321
327
351
358
335
312
304
293
303
297
308
332
326
303
310
300
300
211
661
305
288
287
295
293
322
339
350
352
347
320
305
293
312
311
296
317
330
317
303
309
304
258
524
564
286
291
281
296
307
326
348
363
352
340
304
297
294
291
306
322
319
301
291
283
285
181
658
333
278
282
279
286
305
318
331
337
338
320
315
301
310
320
332
337
344
312
312
311
312
270
661
304
299
294
296
309
318
339
349
356
346
317
300
305
302
302
329
323
305
302
309
311
176
663
349
284
296
296
300
320
321
354
336
333
303
282
279
265
289
301
306
294
308
293
305
174
661
328
308
292
343
294
323
307
337
347
349
323
302
332
356
327
326
314
272
287
263
264
213
656
270
284
295
312
357
327
302
348
331
317
281
257
271
335
302
324
319
310
307
297
213
660
331
327
339
320
283
323
315
361
344
386
332
313
310
336
336
331
280
294
311
340
209
662
371
319
307
284
276
312
342
365
345
330
325
315
323
332
329
343
302
290
295
298
193
661
305
286
309
293
297
336
342
342
317
332
316
295
300
302
344
347
314
294
315
292
396
638
288
284
264
296
308
335
316
340
344
342
333
316
314
306
331
321
311
315
273
172
661
329
283
254
251
256
256
288
334
320
315
318
286
311
319
342
317
319
317
321
227
662
389
285
270
290
313
320
317
349
304
334
300
300
289
300
313
311
278
315
333
215
660
425
302
303
298
307
310
333
347
360
353
326
307
310
342
340
334
328
309
306
233
640
473
300
284
294
288
299
317
337
344
353
317
306
304
305
326
318
302
294
304
238
621
460
287
282
287
293
306
318
335
347
347
325
306
300
310
333
330
316
306
315
289
471
579
305
298
294
307
307
330
340
348
341
326
303
290
293
320
330
308
294
290
294
243
652
284
275
271
279
291
304
325
329
335
321
305
293
296
311
335
330
312
316
318
212
661
338
304
296
302
304
310
333
347
349
342
328
315
312
325
352
342
327
321
318
210
662
401
289
283
289
298
310
325
343
344
342
321
312
302
305
325
340
325
303
305
307
306
659
303
287
289
298
298
321
333
342
342
334
310
305
303
315
333
336
318
312
315
278
466
594
293
281
289
296
300
326
334
345
344
338
313
307
301
312
338
338
323
304
316
275
449
596
292
282
289
293
299
313
334
343
344
332
310
305
304
304
324
336
317
301
306
297
247
661
293
280
281
288
294
308
329
340
343
340
315
306
300
304
320
338
324
307
306
310
181
662
325
290
284
296
295
311
330
347
348
354
330
313
308
313
319
338
337
322
310
309
284
425
561
288
289
286
297
296
324
330
346
344
338
318
301
293
302
318
325
316
296
301
295
192
657
332
279
283
278
294
305
322
326
321
324
316
298
293
293
289
319
327
293
292
287
269
355
571
274
266
268
273
296
297
303
314
313
315
302
294
290
300
327
341
328
320
311
320
238
662
298
290
279
290
301
307
319
335
327
329
315
319
325
322
345
370
355
323
319
321
212
663
467
290
283
300
297
308
311
326
351
344
338
327
324
323
326
322
360
334
320
311
321
251
661
467
289
294
286
300
321
339
345
398
374
346
312
300
273
279
290
285
320
304
291
302
279
183
664
340
330
320
342
319
318
336
340
362
344
338
325
309
310
312
313
336
342
308
310
290
277
355
513
272
263
254
271
280
290
304
309
315
311
300
296
284
283
301
327
305
295
282
292
212
619
325
283
277
284
288
295
304
304
294
317
313
297
315
322
323
338
324
299
307
314
306
372
641
347
341
340
322
324
333
335
345
348
354
341
344
346
340
363
375
361
330
323
321
215
663
464
289
287
288
297
311
307
334
333
338
328
323
321
318
324
336
350
323
309
310
310
226
664
272
272
270
271
283
294
305
313
322
325
317
311
309
305
315
347
332
311
305
308
265
560
655
263
266
268
279
279
300
302
313
325
326
310
308
300
315
314
342
320
301
299
303
172
664
348
274
268
274
280
289
296
317
330
341
319
311
300
307
322
338
340
300
243
320
308
386
658
287
286
312
314
312
308
310
313
321
323
303
300
297
318
330
347
334
325
323
321
215
662
316
292
283
288
293
305
322
332
341
355
350
327
322
321
330
343
310
298
298
299
226
657
323
295
289
298
305
308
316
326
331
340
330
317
308
303
323
334
316
300
301
298
181
661
332
287
282
285
299
305
314
315
321
329
322
319
311
313
323
347
321
307
302
303
183
662
335
290
287
293
303
317
328
330
334
337
329
323
322
326
343
350
329
314
312
311
210
662
320
295
292
303
308
324
337
340
340
340
330
321
316
318
335
343
324
305
312
308
192
662
324
289
285
294
303
321
333
336
340
334
323
316
311
315
323
340
326
306
301
302
205
661
411
289
281
287
296
310
325
338
341
337
326
317
316
315
317
337
337
315
309
308
306
245
661
294
287
290
295
309
325
336
347
349
343
327
320
314
316
321
341
332
312
308
309
238
596
422
294
283
286
294
305
322
335
337
335
318
303
295
293
303
319
325
299
292
292
282
317
551
282
276
276
285
298
312
327
326
331
319
298
291
290
303
320
333
320
300
298
304
196
660
349
291
285
291
303
312
327
345
342
337
320
312
307
308
316
339
343
324
311
310
310
209
662
305
289
291
293
304
316
335
336
342
331
316
311
308
308
308
314
340
341
320
311
313
311
282
662
296
290
288
299
308
321
343
344
348
335
317
310
311
309
309
310
318
331
333
312
310
306
302
241
661
296
289
287
294
305
317
338
341
344
337
311
309
307
304
309
302
312
338
322
305
305
303
262
485
554
287
282
287
297
306
323
338
351
343
326
311
302
304
306
304
317
337
327
305
309
306
232
618
467
292
284
289
297
312
330
345
354
347
325
308
307
304
302
306
312
310
332
330
316
311
310
306
272
661
295
287
287
293
305
319
337
350
354
337
313
303
303
301
301
303
307
309
307
314
342
320
308
311
313
211
659
433
287
284
291
297
310
328
346
353
352
330
314
304
300
302
304
312
310
314
330
338
319
314
314
316
213
662
319
295
294
299
310
326
344
358
362
352
322
310
305
303
305
306
311
311
314
335
331
317
313
317
294
382
604
293
290
295
302
312
324
351
355
362
345
316
301
292
299
300
301
308
299
311
331
308
300
301
304
211
625
365
287
280
289
290
307
321
329
331
329
312
297
294
294
298
309
316
324
350
334
311
306
306
283
418
634
294
287
288
296
312
326
345
351
351
337
317
316
310
311
314
315
325
344
327
314
313
317
268
519
576
291
286
287
296
309
325
340
347
348
328
305
304
301
304
301
305
305
312
332
311
302
304
307
200
658
414
280
276
281
284
299
318
334
343
339
314
295
290
291
293
290
293
298
295
305
329
309
305
304
303
204
659
407
286
283
282
287
306
326
349
352
346
328
305
296
294
295
301
303
301
313
333
320
307
311
308
266
503
467
292
293
299
303
315
329
348
351
350
337
309
302
299
302
308
313
312
339
337
310
305
308
304
233
659
307
297
298
305
318
335
349
361
360
350
329
319
318
321
320
327
336
361
350
328
325
324
321
286
661
313
307
303
308
316
335
351
362
360
341
318
310
304
304
309
317
316
345
337
314
312
314
309
237
662
308
294
297
305
302
315
328
339
329
314
292
275
274
278
273
281
272
306
302
281
267
270
273
159
659
278
254
249
256
256
270
286
294
295
300
280
265
265
266
271
281
289
319
304
284
285
290
292
276
654
273
280
275
287
296
301
314
325
328
317
305
302
305
304
315
318
350
351
327
317
320
329
233
663
375
315
318
322
333
340
356
365
366
363
343
337
336
334
338
343
354
373
369
337
324
321
322
193
664
339
298
296
301
303
313
322
340
338
331
317
301
308
296
308
307
316
308
320
346
337
314
298
306
292
336
664
258
271
262
288
274
293
323
335
303
261
304
346
286
283
325
306
311
319
303
332
334
295
296
290
292
317
664
213
253
257
277
312
316
358
342
349
347
312
310
279
291
298
284
291
300
300
307
341
333
304
296
292
156
661
526
289
301
291
295
299
335
326
378
344
327
301
316
300
299
340
335
320
344
343
323
320
327
325
207
617
387
293
298
300
312
330
337
351
364
348
340
323
308
321
314
313
305
329
332
309
315
312
313
200
659
350
297
286
290
305
319
327
342
337
348
322
307
307
305
319
308
299
319
317
298
300
300
300
259
653
309
277
290
288
307
309
329
334
351
333
316
309
304
311
304
304
324
321
310
303
309
304
191
661
317
288
288
293
298
315
333
341
346
336
319
302
302
302
301
315
332
317
304
304
307
300
334
609
298
282
295
299
308
325
342
351
348
336
312
300
300
299
307
321
328
312
306
306
305
226
586
412
293
288
291
302
313
336
349
354
347
320
302
297
296
298
304
318
323
310
297
299
299
216
597
391
289
286
287
297
305
324
343
345
341
326
300
296
296
295
297
300
322
308
284
309
293
286
334
543
298
278
281
284
292
309
323
339
338
322
294
293
293
299
300
305
325
324
305
289
289
303
202
648
321
292
288
298
304
320
338
350
354
342
320
309
300
305
311
327
348
336
315
316
314
303
341
652
308
295
296
302
314
328
348
360
356
335
314
307
310
305
309
316
340
325
309
303
313
276
445
595
299
282
283
301
300
317
340
343
337
319
295
299
294
302
298
294
324
312
306
296
302
293
177
662
302
277
275
285
303
310
337
341
342
335
309
293
289
299
296
300
312
327
307
307
306
314
224
647
424
292
287
285
294
311
336
346
349
341
314
286
278
287
288
283
286
320
306
295
288
286
287
211
645
296
271
275
281
295
313
323
329
338
327
301
299
298
300
300
306
335
336
314
307
313
312
195
661
341
292
293
297
308
324
348
358
358
346
313
305
306
309
316
315
345
344
321
319
317
316
200
661
327
297
298
300
312
331
354
357
367
349
321
309
306
308
305
313
331
346
321
312
319
317
248
577
502
295
306
284
302
351
328
368
343
354
349
301
286
307
302
285
284
305
326
299
305
297
296
280
393
627
281
275
270
284
289
316
334
347
342
321
290
284
280
284
283
285
296
301
317
296
294
285
291
210
600
422
274
267
267
278
289
306
322
328
335
308
272
271
275
276
274
277
278
301
294
281
285
283
283
180
660
289
266
270
274
289
295
326
336
341
336
300
290
295
297
294
290
296
307
329
307
301
304
308
268
494
557
292
292
294
295
315
334
352
360
360
332
312
307
308
306
313
311
308
333
334
319
314
314
315
205
662
382
293
299
299
310
327
339
358
359
363
323
316
305
307
308
310
312
335
332
311
311
316
311
196
661
371
298
296
298
306
322
346
357
367
355
321
304
304
309
304
303
309
330
321
312
309
314
309
223
661
311
289
285
298
307
319
347
357
351
335
310
293
287
287
292
284
285
312
313
290
289
287
291
191
628
334
270
270
273
288
299
320
328
338
326
304
288
284
283
290
293
299
318
325
298
300
301
304
210
636
388
290
290
291
303
317
337
354
359
354
322
306
305
302
310
311
321
341
338
323
322
323
320
203
661
379
300
291
298
309
320
345
360
363
353
328
306
303
309
307
308
312
312
325
334
319
311
312
316
207
662
431
298
295
294
305
315
341
354
365
356
333
303
299
294
299
292
296
297
309
317
297
297
292
297
214
573
372
268
267
273
274
286
310
319
318
316
298
270
269
264
265
263
280
276
310
289
275
279
280
277
231
643
279
266
264
268
284
303
321
329
331
319
308
299
298
302
303
309
323
339
327
302
308
309
301
321
651
307
292
300
308
316
338
352
363
361
344
323
317
319
318
331
331
347
366
346
333
329
334
319
393
654
314
312
311
318
330
349
358
372
374
347
326
322
322
320
326
322
334
355
338
319
316
319
319
246
662
307
293
288
296
303
313
340
351
349
332
304
292
292
294
295
293
302
318
320
296
290
286
289
198
628
414
272
262
268
275
283
305
325
334
324
299
279
277
277
276
281
281
283
286
295
309
295
288
290
293
238
532
527
281
275
282
285
303
319
340
352
351
332
305
300
303
304
308
309
314
315
313
322
344
330
322
322
322
289
476
633
300
295
298
306
319
339
356
370
370
352
327
321
319
318
320
325
322
327
325
325
355
340
328
328
327
322
299
661
303
290
297
306
309
331
353
366
368
352
318
303
294
299
298
298
299
299
300
313
317
289
290
281
283
173
653
313
256
251
258
266
269
293
298
305
297
271
260
244
243
237
242
246
246
267
265
248
237
241
243
178
532
348
242
235
247
244
251
274
291
288
299
283
271
271
279
273
282
296
308
337
316
311
311
315
321
342
662
337
336
325
304
317
329
350
371
365
352
336
331
340
342
351
356
376
385
363
338
337
266
318
234
664
315
344
340
354
355
370
371
384
380
358
350
332
323
308
334
314
292
336
339
380
328
404
436
354
279
653
622
314
300
313
305
313
321
336
361
359
350
329
326
298
308
255
288
290
334
355
333
318
328
315
255
573
573
281
281
293
298
311
335
355
354
358
341
318
311
310
305
297
294
315
305
287
288
288
288
180
638
318
268
260
265
269
287
295
307
308
303
280
260
249
251
251
256
273
275
253
250
251
255
152
608
312
247
249
252
266
282
302
318
325
316
303
282
279
281
281
302
314
309
289
293
296
299
277
638
305
291
299
302
316
338
362
363
368
356
331
323
318
322
331
356
348
331
327
326
332
219
661
371
316
316
316
329
345
362
379
385
377
347
330
329
325
328
347
355
332
327
321
329
265
565
481
309
299
303
311
326
343
360
369
366
341
321
314
314
314
322
336
340
320
317
316
315
205
661
360
301
299
294
309
322
341
360
356
353
321
304
300
298
303
313
330
322
304
304
303
298
281
638
299
283
287
299
309
322
345
356
357
342
313
300
301
300
305
317
328
311
304
305
307
199
659
350
292
290
294
307
320
341
357
364
358
326
306
303
304
306
320
336
320
307
309
306
273
460
500
294
285
292
300
308
327
339
344
346
330
297
301
294
292
297
318
323
306
299
296
299
184
660
330
282
280
291
297
312
336
347
357
340
314
296
295
295
293
305
326
321
303
301
301
301
261
650
303
292
291
298
305
325
347
362
357
344
315
305
303
299
302
312
328
332
323
312
311
314
208
661
384
299
295
301
313
324
346
365
370
365
339
314
308
311
309
310
310
332
335
314
313
315
308
207
659
330
293
296
298
311
326
344
355
363
349
321
306
298
300
299
305
303
325
326
306
298
301
308
183
661
327
289
289
289
302
319
335
352
363
351
325
306
303
302
304
303
311
326
336
314
310
309
308
214
658
329
300
296
307
314
326
354
368
373
353
329
312
306
303
305
311
315
336
330
313
318
315
308
316
632
319
304
306
316
326
341
365
374
370
349
321
312
311
309
315
321
335
346
332
324
317
319
265
562
543
291
288
295
301
316
326
354
358
358
331
304
295
296
294
298
304
318
333
310
303
303
305
201
658
345
289
282
291
304
316
336
347
354
349
321
306
304
307
313
319
330
351
340
318
320
321
317
327
658
312
305
303
308
316
336
359
367
369
344
320
313
312
312
312
320
338
345
325
315
315
315
227
658
458
299
292
297
302
314
333
356
360
357
325
307
299
302
302
307
303
309
332
324
307
306
305
301
287
662
291
291
290
294
304
323
347
361
368
344
318
300
305
301
305
305
303
309
334
328
315
312
314
310
243
659
312
293
292
301
307
326
345
354
356
347
316
305
296
297
301
306
306
324
339
325
313
324
318
282
488
561
304
299
298
309
320
340
357
369
366
345
314
309
312
310
314
317
328
348
333
317
319
320
298
409
646
298
293
296
304
320
331
354
367
368
344
316
307
307
308
308
309
314
328
336
318
320
311
312
208
662
416
292
289
289
299
315
329
356
365
353
327
299
299
297
295
296
294
302
318
324
314
304
304
307
224
623
399
294
288
289
302
310
340
356
367
361
331
314
304
312
310
314
316
331
347
335
321
319
320
315
339
658
307
298
300
306
315
334
361
367
370
350
315
309
309
305
311
309
315
329
346
326
321
320
316
223
660
441
292
287
288
296
311
331
356
360
361
326
300
292
295
293
295
294
307
328
316
301
305
300
290
316
618
294
284
284
290
306
329
354
361
362
350
325
311
313
309
314
320
327
351
344
326
320
319
325
197
662
332
298
296
302
309
323
349
357
367
352
322
300
299
301
302
299
305
310
333
316
304
302
303
293
340
657
284
281
284
285
294
312
341
358
357
338
304
299
292
293
296
292
295
300
302
327
320
302
307
304
285
410
556
296
281
288
288
297
328
342
354
355
334
305
293
291
295
297
303
310
325
332
310
304
302
305
259
525
483
295
299
305
315
329
349
371
374
371
348
329
321
317
322
326
329
339
359
349
330
327
330
328
272
662
316
307
304
310
322
337
361
377
373
357
326
317
315
309
312
316
321
331
346
323
315
314
314
289
471
626
298
292
290
294
306
327
342
359
354
333
296
291
284
283
279
285
280
298
302
282
273
273
272
193
559
365
250
245
240
256
267
285
298
307
305
282
252
248
242
243
250
258
274
285
273
263
265
264
250
381
532
265
259
262
271
281
310
324
339
342
317
290
288
286
287
293
301
324
335
323
307
307
315
294
424
635
305
299
303
307
324
342
366
377
381
359
334
324
331
325
328
329
334
356
353
333
330
331
329
207
662
350
305
306
307
317
335
354
373
380
364
329
308
306
308
305
305
307
333
331
320
311
319
314
271
516
495
302
303
302
313
321
346
366
378
372
348
325
317
320
316
325
325
336
352
347
330
329
326
328
216
663
338
311
305
314
317
336
353
374
375
361
335
322
323
314
320
319
323
339
350
329
318
316
313
273
528
595
296
290
292
298
309
326
342
355
352
332
312
307
307
311
308
312
317
341
346
318
312
315
317
186
663
382
290
281
286
296
313
331
353
359
356
325
302
295
298
289
295
294
298
332
322
308
305
306
304
240
658
310
288
288
290
299
311
332
346
344
325
295
274
273
273
272
273
275
278
291
270
255
253
252
206
475
465
233
228
238
236
246
268
284
297
299
277
256
245
248
245
246
255
267
299
292
268
275
278
280
182
659
289
271
269
284
293
317
336
353
351
339
316
303
297
304
309
313
337
355
336
324
319
321
300
434
611
313
308
312
322
337
349
366
380
369
348
336
319
327
328
332
338
366
352
330
325
325
322
203
663
327
304
300
306
309
328
347
354
371
349
318
307
309
306
306
315
340
342
321
315
318
313
227
655
463
297
294
296
300
318
336
357
369
356
333
309
311
305
313
314
323
348
332
317
312
312
307
325
660
293
287
285
297
304
324
342
359
359
341
307
299
289
293
298
318
325
309
301
303
303
224
637
399
294
290
296
310
320
354
373
385
379
347
327
321
323
323
332
360
350
329
321
320
318
225
664
312
303
298
305
314
326
351
362
370
352
326
314
316
317
320
338
347
335
317
320
320
276
531
591
301
301
295
307
318
340
356
371
360
329
306
300
290
289
295
319
319
306
291
298
298
252
509
471
287
277
285
286
306
321
334
346
347
321
305
304
306
311
329
355
351
327
326
321
320
222
663
316
302
296
306
311
327
350
366
368
346
315
303
308
309
309
331
348
330
310
309
308
274
518
586
295
293
287
293
307
328
340
353
350
327
304
300
300
302
304
328
336
311
306
305
301
179
662
345
281
285
284
295
307
326
346
356
344
323
305
302
309
304
331
331
311
304
308
311
180
663
325
295
296
301
309
320
345
358
368
353
327
316
313
317
320
337
339
326
313
315
318
176
663
336
297
302
302
313
328
358
367
376
361
335
313
310
314
309
332
330
310
304
304
308
186
660
343
286
275
280
298
308
326
342
349
341
318
300
299
307
315
344
350
333
314
317
318
205
662
388
300
292
297
311
320
340
356
362
355
328
306
307
304
311
327
340
334
306
308
307
258
544
538
290
288
289
297
311
331
351
362
357
333
307
304
303
310
309
331
341
319
309
315
318
193
663
357
299
294
298
304
322
341
358
368
359
325
303
303
305
307
306
311
331
336
317
311
309
307
203
662
306
291
287
297
305
316
340
355
362
348
320
305
306
299
307
311
313
342
326
311
308
309
276
474
579
301
293
296
314
323
339
363
374
373
354
323
311
304
302
300
305
321
333
315
304
299
303
197
653
354
285
283
291
300
313
332
348
357
351
321
299
292
295
292
293
323
320
294
285
282
286
208
655
288
271
273
279
296
310
326
336
338
321
299
286
283
284
288
314
322
300
280
281
278
163
660
337
261
254
260
273
281
302
319
323
313
286
273
270
271
271
282
317
310
287
281
284
281
235
661
279
279
274
285
294
308
338
352
359
341
314
310
307
314
309
317
346
335
320
317
323
312
362
659
309
305
302
312
325
339
364
372
379
363
334
323
326
324
319
320
329
347
331
319
313
310
244
586
436
290
282
288
293
308
320
336
343
343
319
295
292
279
287
293
324
326
308
292
301
313
221
662
311
293
287
283
298
314
337
349
350
341
318
310
308
309
315
343
350
322
313
313
305
172
664
311
294
292
295
309
317
333
354
353
347
319
315
321
318
320
348
344
326
314
314
308
197
663
300
293
293
299
310
326
338
352
355
348
329
315
321
318
319
337
345
322
307
308
307
169
663
341
290
287
296
303
314
333
343
354
348
321
306
299
301
303
300
340
315
297
290
291
249
529
570
278
267
274
277
292
307
326
334
337
313
293
290
288
286
298
310
331
303
289
292
294
154
663
365
287
279
287
294
308
333
346
357
354
326
306
308
309
307
315
346
328
308
323
311
226
651
423
283
280
286
287
304
327
344
356
354
336
320
311
308
313
338
341
313
306
312
317
199
662
320
303
302
305
317
337
354
360
364
359
335
321
323
326
332
352
352
326
319
321
319
191
663
328
298
300
304
313
326
344
359
364
361
334
318
318
315
317
342
339
316
305
308
310
224
662
298
289
290
298
309
319
343
350
363
351
325
312
313
312
320
331
330
309
294
297
288
260
612
285
275
278
281
296
311
322
333
333
329
305
285
275
286
315
324
296
294
291
300
211
661
351
304
296
299
304
311
332
342
345
344
324
315
319
322
337
357
338
315
312
312
210
662
448
294
288
297
300
309
328
340
349
345
326
316
315
314
325
345
327
312
307
313
213
662
468
291
282
287
293
301
316
334
338
334
314
302
295
293
295
314
320
291
280
284
277
247
662
255
252
250
255
263
274
289
298
304
291
271
265
260
262
265
291
294
266
262
264
263
214
661
250
251
251
261
269
286
301
320
324
314
302
294
291
300
300
334
326
303
305
306
291
426
650
294
294
301
304
319
332
347
358
364
351
337
332
331
332
333
364
353
331
330
331
291
537
598
316
310
311
319
329
344
359
372
368
354
341
333
331
334
340
362
344
329
324
330
234
661
462
309
305
313
320
332
343
353
359
360
342
325
324
325
325
338
354
334
317
318
320
191
663
356
301
299
292
306
315
334
345
346
340
323
305
303
302
304
324
326
300
297
298
298
240
659
289
280
278
281
298
308
323
335
341
325
312
298
300
301
306
332
328
305
300
304
286
384
570
292
291
289
297
310
326
342
347
348
336
316
307
306
308
318
342
336
314
311
312
298
375
593
307
297
299
306
317
331
346
358
355
339
321
312
311
314
324
347
346
326
325
325
318
296
656
308
298
300
304
317
332
345
354
356
343
320
303
302
296
313
337
330
299
297
305
286
372
529
294
287
289
296
306
315
330
336
338
331
313
304
303
309
331
338
321
305
309
303
225
615
383
297
284
292
300
314
325
338
342
339
327
318
317
317
327
364
359
336
329
326
326
259
662
322
312
307
315
321
335
355
359
363
352
328
322
319
323
327
356
355
334
325
323
323
241
662
317
304
298
305
314
330
345
356
357
345
322
311
310
309
312
317
321
345
328
314
313
310
246
597
501
288
282
288
288
303
319
336
342
342
315
298
291
287
288
290
291
295
296
294
296
322
311
299
295
295
190
660
407
270
267
272
276
288
307
330
337
336
319
300
289
290
292
299
300
304
306
307
333
328
312
312
311
294
381
646
293
289
293
298
309
324
349
362
360
342
323
312
304
305
308
315
315
319
337
337
320
319
316
319
302
649
307
298
298
303
317
332
342
360
361
346
321
309
309
308
313
320
327
343
357
339
323
329
324
224
661
404
308
304
310
315
331
349
360
368
359
340
321
318
322
316
324
332
337
357
342
326
320
324
287
500
614
304
297
295
306
314
328
343
355
354
340
314
310
304
305
306
309
310
329
322
303
295
294
296
181
662
284
265
265
265
274
286
305
315
323
308
286
268
264
257
261
263
266
272
293
283
269
267
262
254
316
599
247
243
242
252
267
283
298
313
318
304
287
273
274
274
282
288
290
290
317
318
304
302
297
299
177
662
323
289
290
297
310
316
343
357
356
345
336
312
306
307
311
317
320
326
352
342
325
324
320
320
318
645
314
301
307
316
327
344
355
362
368
360
343
331
333
333
340
335
342
365
354
333
326
326
324
274
661
309
297
300
303
306
319
340
354
357
348
329
322
316
308
348
294
279
316
301
284
269
256
264
205
640
266
233
242
235
256
253
276
290
282
314
250
249
263
261
272
277
299
309
286
282
290
288
264
432
502
287
283
283
302
310
320
333
346
342
347
322
335
324
338
353
352
380
386
356
353
373
359
395
660
316
287
310
321
295
344
393
391
408
395
405
354
392
410
382
379
424
388
350
338
334
314
312
664
300
306
305
232
261
330
320
385
451
339
385
352
297
336
314
321
328
328
326
265
280
282
136
664
343
258
241
258
306
328
298
370
383
330
312
320
334
324
283
293
315
320
292
288
312
288
155
663
345
274
266
250
252
300
265
287
335
326
335
325
310
277
285
284
313
302
287
284
285
281
160
662
279
270
278
283
289
304
315
327
331
325
299
288
290
287
291
308
320
296
298
298
303
197
643
353
290
292
300
304
323
338
349
353
355
339
317
311
308
319
336
333
308
305
311
303
209
647
340
293
292
292
305
321
332
341
341
340
328
305
299
301
314
332
330
299
298
301
301
243
651
307
289
290
297
310
329
337
343
348
341
326
312
310
315
331
344
322
305
306
304
244
558
469
297
281
294
299
310
330
342
347
346
331
314
306
306
322
344
336
317
312
313
311
282
660
304
297
294
305
316
326
348
352
361
346
325
314
314
323
346
341
318
309
311
307
261
660
303
288
293
293
305
321
335
350
349
334
314
301
300
312
336
336
309
306
307
301
347
637
295
289
294
296
308
322
340
350
351
333
311
306
304
317
337
330
308
305
306
258
535
495
290
288
294
297
311
333
347
351
346
326
304
305
306
327
335
317
305
304
303
202
662
313
291
288
297
306
320
343
352
356
342
315
307
305
321
336
330
307
302
301
236
595
408
281
273
278
285
298
312
325
330
321
297
281
273
273
281
299
296
274
270
271
203
544
382
255
243
252
265
274
296
311
323
316
294
277
274
278
283
295
311
302
290
290
295
176
661
318
282
284
289
297
315
334
350
357
350
321
309
311
311
314
332
346
333
319
320
320
221
662
325
305
305
313
322
341
361
372
374
361
340
325
323
324
328
340
357
348
331
332
333
222
661
351
310
310
311
325
338
356
370
376
358
334
319
315
312
318
335
350
328
314
318
312
230
657
314
291
288
296
306
321
336
352
350
335
316
302
297
304
305
332
338
326
300
300
302
211
657
300
280
284
284
300
312
326
340
342
324
308
294
290
289
304
333
330
312
296
295
281
325
621
277
267
272
283
294
311
324
334
332
312
295
289
286
291
293
328
322
297
291
294
262
455
553
274
270
272
284
294
313
332
340
339
319
300
296
298
302
304
328
343
324
311
310
312
270
661
302
297
293
304
311
333
353
366
369
347
321
314
315
313
313
321
339
354
333
324
324
326
233
663
318
304
299
304
312
327
350
363
368
349
323
309
307
306
307
309
312
310
317
335
318
307
308
308
243
662
295
285
280
287
296
317
332
348
354
339
308
295
295
292
294
297
298
299
316
329
307
298
298
300
248
661
286
282
281
285
298
317
337
349
352
336
308
299
297
296
299
301
303
305
316
337
322
314
315
313
187
663
336
293
295
298
304
321
343
361
367
353
327
308
303
305
305
303
309
308
313
339
324
310
306
307
191
662
354
283
281
285
295
306
328
345
352
346
315
294
289
287
288
290
292
294
305
321
301
294
295
296
190
661
297
275
276
282
291
305
330
343
348
335
309
295
294
294
297
299
298
303
318
327
313
305
308
309
244
661
302
293
294
300
313
327
349
363
368
353
325
313
312
318
316
318
317
320
337
342
325
320
322
318
257
661
311
300
300
306
319
335
357
371
372
358
330
317
312
315
315
311
319
326
340
350
332
313
316
302
205
658
323
264
262
257
271
277
299
319
329
328
304
276
269
268
271
275
281
293
312
294
276
279
280
202
606
390
263
257
266
275
291
313
330
338
336
311
295
290
292
298
301
307
317
335
318
312
314
316
223
662
419
304
305
313
330
338
358
388
390
379
357
333
327
327
325
327
324
345
350
328
325
320
324
211
661
339
304
301
306
317
330
341
359
362
355
332
314
307
306
308
309
319
341
332
306
302
299
280
383
567
290
277
280
287
294
306
327
326
329
305
293
285
285
286
288
298
325
312
288
283
281
271
328
626
272
264
265
275
283
301
320
332
330
317
289
286
285
292
291
302
332
322
304
301
303
300
300
660
294
289
291
296
307
326
347
362
362
341
322
316
318
318
321
321
328
352
351
333
328
330
328
225
663
324
309
311
317
325
341
365
375
387
371
341
325
323
325
323
323
329
332
357
344
330
328
327
289
520
608
304
301
305
314
325
340
364
371
370
350
322
315
313
315
314
318
318
313
321
343
331
314
313
312
244
590
451
293
292
289
298
309
327
344
354
350
329
298
292
283
287
294
295
301
328
318
300
299
297
297
239
655
296
284
285
289
302
319
339
351
351
339
316
305
303
301
309
312
325
348
341
320
318
316
308
350
654
306
297
300
304
318
335
358
367
371
348
325
320
311
312
319
318
332
354
331
319
313
316
274
525
576
297
294
296
303
313
333
352
361
359
334
309
303
303
303
305
308
313
337
334
317
311
311
311
208
662
307
285
290
291
306
322
339
357
360
347
317
307
299
302
304
302
306
306
306
328
325
306
304
298
294
316
645
281
271
275
275
287
303
328
338
337
319
294
269
265
267
268
268
268
283
301
279
270
270
274
217
514
395
266
263
268
276
290
310
332
343
337
324
302
297
300
306
312
316
327
351
344
323
323
322
323
322
660
317
310
311
322
331
347
371
382
385
363
336
324
326
323
328
331
336
363
355
334
331
331
331
249
662
319
308
308
312
323
337
355
373
375
357
328
316
317
315
315
318
321
327
345
329
314
315
315
292
434
641
294
292
297
299
311
327
348
362
363
341
314
306
305
307
308
307
312
310
336
333
316
314
313
314
233
663
300
291
295
298
306
322
347
358
363
349
323
307
307
306
308
306
307
312
337
334
315
314
317
316
216
662
309
291
294
302
310
327
348
358
366
353
320
305
305
303
302
303
306
307
332
326
303
305
304
303
204
661
295
281
280
284
294
309
328
340
345
337
304
286
281
277
277
279
288
307
297
277
280
279
283
222
621
272
263
266
278
289
307
324
340
337
331
300
289
283
287
290
296
328
333
311
302
304
305
255
550
456
301
297
304
314
329
349
368
374
367
351
325
323
324
326
337
358
368
341
330
329
326
294
499
588
312
302
312
318
324
342
363
372
370
341
316
308
311
308
310
321
348
339
313
310
312
309
201
661
315
291
287
294
304
317
341
353
358
347
309
296
295
298
299
304
312
334
325
307
302
310
303
208
662
302
287
284
290
300
318
336
353
359
342
312
288
286
288
285
283
288
309
304
288
280
279
278
156
659
286
253
249
259
266
281
304
316
321
304
275
256
255
253
253
256
275
295
284
266
266
269
266
226
626
271
255
261
269
291
309
331
349
350
337
311
304
303
308
314
322
345
353
333
327
326
330
263
617
506
316
312
318
325
340
357
380
387
383
355
331
327
325
330
329
333
358
356
340
335
331
332
229
662
429
316
306
314
321
337
353
370
380
373
343
320
311
314
309
309
309
334
338
316
311
306
309
204
660
347
293
286
298
306
318
338
352
355
348
325
302
299
293
301
306
323
346
334
311
314
317
315
318
655
312
303
304
313
324
338
356
373
368
351
322
312
312
309
311
320
345
338
311
307
304
310
179
663
319
278
274
278
284
299
320
332
338
322
290
272
271
272
270
270
286
302
289
271
269
271
262
319
614
258
252
251
263
273
291
315
329
337
310
287
278
279
281
283
290
297
322
314
301
300
303
304
228
661
300
291
295
301
309
329
350
370
370
357
328
313
311
311
310
314
318
337
339
325
319
324
321
236
656
386
300
300
301
313
325
343
360
363
357
333
312
299
297
303
304
308
328
329
315
304
304
307
285
394
573
287
280
279
287
300
317
336
346
345
321
294
286
287
287
292
296
311
329
310
299
295
297
300
272
660
289
284
286
292
308
320
342
356
360
346
316
307
310
309
310
311
317
324
346
332
316
317
317
307
361
658
297
298
298
304
315
331
350
362
368
347
322
312
312
310
313
315
318
319
345
333
316
316
315
315
204
663
314
295
295
304
313
324
344
358
364
356
331
313
315
318
318
315
317
322
331
347
327
319
320
320
273
547
577
298
294
300
304
314
332
352
363
360
344
318
311
313
312
312
314
316
317
338
338
318
313
316
316
191
663
348
296
293
296
304
318
337
352
356
348
325
304
302
301
300
303
303
305
321
326
305
299
301
301
210
648
411
284
283
285
294
304
323
339
343
347
322
300
297
295
294
299
300
303
326
324
304
304
305
307
194
661
383
291
290
294
304
316
336
353
361
358
333
310
306
308
307
307
310
310
317
339
322
314
314
313
297
392
634
299
294
299
305
318
334
356
368
367
352
329
311
312
315
315
320
318
321
340
343
322
321
318
322
211
662
385
303
300
303
313
327
346
363
371
366
345
316
309
308
305
310
306
309
333
332
305
303
303
306
200
657
331
289
285
288
297
315
329
343
347
334
312
292
283
279
285
287
285
303
318
297
286
284
287
267
376
533
285
275
281
283
298
313
333
339
335
323
303
289
292
291
296
304
325
333
312
304
306
310
277
481
554
300
293
301
306
317
336
356
361
364
342
319
316
316
315
320
329
341
352
330
317
319
318
294
448
643
297
298
302
307
318
328
348
357
359
339
321
317
317
318
318
317
327
350
351
327
322
326
327
207
662
413
306
302
308
315
328
347
365
373
366
342
317
313
314
313
310
310
309
311
338
329
316
320
322
308
288
661
296
292
286
292
302
322
335
355
365
349
312
286
281
280
278
272
274
283
309
276
275
273
269
244
351
475
248
238
238
238
235
251
268
259
270
252
237
224
227
238
235
231
250
250
225
221
219
223
169
481
306
207
207
213
217
227
241
250
252
256
252
249
273
271
286
321
339
357
332
295
284
262
261
156
662
268
230
285
295
316
354
370
398
419
399
411
386
401
389
398
389
389
375
362
318
329
332
306
435
662
274
301
349
342
380
388
385
430
412
388
376
373
379
364
350
336
340
345
338
325
330
311
318
227
663
281
276
311
313
368
398
393
378
386
382
362
352
338
332
324
325
339
347
324
315
309
310
250
590
611
306
307
306
310
316
327
334
338
337
326
307
300
295
295
293
312
316
293
292
293
289
234
513
418
283
280
285
291
307
319
338
341
341
332
305
295
300
298
306
323
318
297
296
298
299
195
656
344
289
291
297
306
322
341
353
354
349
329
311
308
304
309
328
336
319
304
304
303
287
384
561
292
285
289
293
299
313
328
337
336
321
297
286
285
282
297
311
297
279
276
278
276
240
640
274
261
267
269
282
293
313
323
325
310
288
281
278
278
296
312
292
277
279
284
270
368
544
277
272
277
285
295
316
331
343
345
329
307
296
304
304
316
319
299
295
293
298
190
659
326
281
286
289
299
313
334
342
353
346
320
311
310
320
351
359
339
326
323
319
264
568
502
305
304
306
312
324
341
355
363
359
338
314
313
313
323
351
339
321
312
311
309
226
662
299
291
287
291
300
316
334
344
347
336
312
303
305
307
321
339
321
306
304
305
249
577
526
287
285
290
296
309
327
343
353
352
328
307
305
307
304
308
329
336
310
308
306
307
196
661
308
290
287
293
303
319
339
350
355
342
314
300
299
299
301
308
325
332
308
300
298
299
180
661
307
282
283
290
300
313
333
346
348
339
313
299
300
302
302
309
324
337
317
306
308
310
181
662
338
290
286
292
304
313
331
345
348
337
307
285
278
277
277
274
276
301
289
270
259
262
244
346
512
244
236
238
246
257
277
293
301
303
279
257
251
250
251
257
261
267
291
290
277
274
281
271
338
605
281
275
284
292
306
326
349
361
365
346
324
318
318
323
326
331
334
344
367
349
340
343
346
228
663
430
329
326
335
340
357
375
389
394
387
359
339
339
335
335
338
341
342
356
363
346
338
338
338
216
662
341
313
313
322
327
342
360
374
374
363
337
321
317
314
316
317
319
321
319
339
342
325
319
317
313
303
659
301
294
294
302
311
324
344
355
358
344
317
303
300
302
304
306
306
307
318
331
310
304
300
300
164
662
319
270
267
267
273
285
305
317
321
310
283
261
258
257
254
255
259
259
261
279
281
263
260
259
259
222
653
255
244
247
255
270
285
304
319
326
316
292
281
283
286
290
295
301
302
305
330
331
313
313
317
304
379
651
305
302
311
317
329
343
369
374
384
363
341
325
323
322
326
324
327
329
356
351
329
330
330
305
455
529
318
312
318
326
337
353
369
374
372
352
326
314
311
311
309
313
314
332
337
316
306
308
308
199
660
339
299
295
301
311
323
343
353
357
350
322
307
305
302
305
311
310
324
340
323
313
308
309
251
564
520
289
287
289
295
303
323
338
351
343
321
299
293
293
292
293
296
300
318
321
305
305
309
308
177
663
335
293
287
289
301
317
336
355
366
354
323
306
304
304
305
304
309
309
313
325
342
319
322
318
318
216
660
329
301
303
312
321
336
355
368
373
360
331
314
308
310
316
316
319
316
334
344
323
313
314
313
209
660
365
300
298
303
314
324
349
361
367
357
331
312
306
308
307
312
317
320
349
337
314
309
313
308
261
661
300
286
283
282
292
310
334
348
348
337
304
294
293
292
291
291
293
293
317
302
285
286
285
279
288
655
257
246
246
253
267
286
305
322
320
302
279
267
264
271
273
277
282
287
284
315
303
294
294
292
267
427
586
279
274
277
288
299
320
341
353
357
339
313
296
297
297
297
304
307
311
342
332
317
314
319
312
262
658
310
301
302
311
320
334
354
363
364
351
321
312
311
312
312
321
327
336
359
343
331
327
327
306
434
630
311
307
310
320
327
347
367
378
375
352
322
316
316
319
323
324
333
353
349
332
322
324
327
196
664
365
304
301
307
316
330
351
367
373
364
333
311
308
311
309
309
309
313
340
332
314
308
311
309
205
663
299
284
286
290
296
311
332
343
345
329
295
274
271
270
265
268
261
266
286
284
262
260
257
254
116
661
270
225
225
226
239
250
273
291
299
289
261
241
239
241
243
247
253
260
285
295
273
272
277
280
211
650
300
285
288
299
313
331
351
369
377
366
342
326
325
330
336
343
346
356
379
377
363
358
359
362
288
662
357
344
343
352
360
376
396
410
409
397
363
346
343
342
345
347
348
370
368
346
339
337
337
241
661
476
312
308
311
318
326
346
363
369
364
334
308
303
298
298
296
298
298
299
325
309
299
301
299
286
324
648
274
268
270
277
285
303
325
336
340
322
291
279
279
278
279
284
286
294
316
307
298
297
303
297
309
655
290
288
289
302
306
323
346
358
360
343
320
298
295
300
295
300
301
303
328
324
309
310
310
312
211
658
324
297
301
301
319
329
347
363
366
358
328
312
308
305
311
317
318
325
348
329
316
315
317
307
312
648
305
290
295
301
308
323
341
350
353
330
302
287
290
286
285
288
300
315
299
283
279
279
271
249
651
275
260
264
270
279
293
317
331
334
317
290
276
279
280
281
288
295
312
324
305
295
296
305
257
518
545
287
286
291
303
316
331
350
361
362
340
312
307
310
313
313
317
321
331
347
329
324
320
322
287
483
619
299
295
299
310
320
333
355
371
364
344
316
306
306
304
303
303
297
299
309
327
314
300
305
302
241
533
468
285
271
278
281
296
316
335
346
348
325
291
281
283
279
285
288
293
316
312
292
285
290
291
177
660
324
286
290
297
305
319
334
347
352
344
323
310
311
310
316
319
330
352
350
330
320
323
323
246
661
520
306
306
312
321
334
351
371
381
379
354
333
330
332
329
324
326
331
358
341
328
323
326
321
230
663
305
290
285
291
296
311
328
340
343
326
292
271
270
265
264
262
266
268
289
277
261
259
261
259
173
657
264
247
248
252
266
281
300
318
320
307
285
273
279
281
289
295
301
309
314
338
324
314
318
326
269
600
558
311
312
322
327
346
363
383
393
399
376
354
339
342
341
339
330
336
359
344
329
324
330
327
279
657
326
315
313
320
332
347
364
377
375
368
338
318
309
308
311
319
333
342
326
310
308
309
299
343
601
301
289
295
304
317
332
348
356
353
339
320
310
309
310
312
320
348
339
316
309
310
308
191
662
334
293
292
295
306
319
335
350
355
341
311
300
297
298
299
308
338
332
306
300
300
299
184
662
363
284
281
286
294
307
327
347
353
343
319
300
299
298
300
305
330
336
314
305
306
307
246
592
523
293
291
295
301
314
332
354
367
360
337
314
308
310
311
313
312
338
341
316
312
310
311
219
655
453
287
285
285
294
301
321
334
346
340
315
287
283
283
279
279
278
280
283
308
290
272
271
274
242
419
492
253
244
244
255
258
274
301
314
312
291
258
248
246
248
250
265
282
291
276
267
269
266
227
474
447
271
269
273
281
294
319
335
349
348
330
309
308
339
296
307
335
355
353
342
324
330
329
253
662
331
326
310
328
334
348
373
387
391
370
340
326
326
320
323
330
362
352
336
328
329
332
200
663
354
307
307
311
320
336
353
368
377
362
325
313
313
314
312
316
324
346
336
325
322
320
324
270
663
311
304
305
308
318
332
357
374
378
356
324
310
306
305
304
308
305
327
326
310
309
313
310
230
660
310
289
292
295
308
322
341
354
359
337
310
301
297
297
301
309
334
331
315
310
311
315
230
640
430
301
297
300
306
321
342
356
367
361
330
312
306
310
307
316
338
341
320
315
315
313
239
615
482
295
289
297
302
312
333
349
360
351
319
291
287
285
284
285
291
316
302
277
277
274
273
217
659
259
244
248
246
261
272
294
312
317
294
262
254
251
253
258
257
263
273
291
273
268
272
277
192
635
427
274
269
276
285
299
319
343
352
354
331
303
301
300
308
305
311
314
339
340
322
318
320
322
