68
364
368
372
382
403
389
364
358
357
350
305
658
339
329
328
339
349
365
378
388
390
375
345
324
324
328
327
335
360
358
332
325
321
315
220
659
326
287
282
286
296
304
318
333
332
326
294
264
254
253
255
257
263
280
276
256
251
249
246
148
612
252
226
224
233
245
261
278
295
303
301
280
263
261
268
278
288
295
307
327
347
331
331
337
341
276
642
400
342
340
349
361
374
392
409
419
423
406
383
374
376
381
390
393
399
406
426
431
410
410
413
411
323
661
424
396
393
400
406
419
436
446
454
447
422
397
384
387
383
389
392
399
416
414
393
384
384
383
297
659
378
358
356
360
368
378
393
400
402
393
364
338
326
324
325
324
330
349
343
319
311
305
301
211
627
320
269
262
262
271
279
291
302
303
297
271
240
229
226
228
232
237
256
265
244
235
238
238
195
465
337
239
234
242
257
273
296
316
329
335
321
299
291
299
309
316
324
334
352
372
358
353
359
363
340
514
557
365
360
366
378
392
409
428
440
443
430
403
390
389
395
398
402
404
406
415
433
419
408
407
407
389
491
637
388
384
383
391
399
409
425
431
430
420
386
365
359
356
357
356
355
354
355
369
369
350
344
340
340
247
657
347
314
310
315
328
336
350
366
369
367
346
317
310
313
311
315
320
318
336
345
334
327
326
330
309
436
481
323
313
317
327
339
354
375
384
387
377
349
330
326
330
331
334
336
344
364
357
341
335
333
336
285
639
326
313
314
322
332
347
363
375
377
371
341
322
310
310
312
316
326
347
353
332
322
320
320
273
549
423
312
304
314
320
329
346
367
374
378
359
333
319
320
320
329
331
344
367
352
339
341
344
342
333
647
339
332
335
346
356
373
392
405
410
399
369
348
347
347
346
349
355
372
382
362
351
349
349
307
564
460
336
327
333
346
358
373
384
394
393
376
344
327
324
324
326
325
328
334
356
345
327
327
325
321
292
643
323
307
310
320
332
347
363
374
379
374
348
325
316
316
319
324
330
354
362
343
331
331
331
295
541
483
327
321
328
337
351
367
384
391
396
377
348
334
335
337
337
343
354
378
366
349
350
349
346
297
659
344
335
338
342
357
369
389
398
403
393
366
343
337
338
339
343
346
362
377
356
346
345
344
319
480
536
332
326
329
338
352
366
381
394
397
382
350
333
331
332
331
334
335
342
359
355
336
335
333
331
240
658
335
314
312
320
331
343
359
375
382
380
354
327
318
318
321
318
322
321
331
342
327
314
311
308
297
349
514
288
274
275
283
288
303
315
323
328
315
282
258
256
258
267
271
274
281
300
295
274
269
267
267
176
601
274
254
258
271
284
303
324
347
360
359
345
318
312
320
321
328
333
337
353
365
351
341
344
345
302
570
454
348
343
350
365
375
391
410
420
422
406
379
364
363
369
373
378
389
413
406
382
375
375
371
276
661
379
359
359
367
379
398
415
429
432
427
402
375
371
373
375
378
383
402
410
388
378
376
376
325
612
511
361
352
356
363
374
389
402
411
414
397
364
351
352
354
357
359
361
376
376
351
341
336
333
244
654
357
300
291
295
304
316
325
338
343
342
316
284
272
273
273
277
277
284
305
297
280
278
278
276
187
628
273
251
254
263
276
289
307
322
331
329
307
289
287
290
299
304
310
325
343
338
328
329
333
335
286
645
341
327
332
340
354
372
388
404
417
412
386
359
358
359
370
368
376
394
395
372
360
362
359
287
638
396
338
333
336
345
357
369
384
392
390
370
339
326
319
322
326
334
355
355
332
320
320
319
250
620
378
316
311
320
330
341
362
376
381
385
361
335
325
327
333
337
346
373
366
348
347
348
351
259
660
353
335
339
348
358
374
389
404
409
403
375
351
349
354
357
365
379
394
384
368
367
367
365
317
658
361
351
350
359
368
380
395
407
411
400
372
345
343
348
349
354
359
378
375
358
352
351
349
259
658
360
325
323
331
337
349
367
378
385
381
357
330
321
320
327
333
342
366
365
342
338
337
331
240
659
344
312
311
320
329
347
357
374
378
376
352
326
316
321
319
330
349
360
341
332
330
333
313
432
540
320
309
312
320
335
348
367
377
379
364
333
317
318
322
325
337
356
357
338
331
331
331
238
659
347
309
303
305
315
325
338
347
347
342
314
282
270
271
272
271
274
290
285
264
254
254
246
151
594
255
219
215
218
228
241
257
273
281
280
259
235
233
241
249
260
271
292
308
298
295
303
307
270
532
400
314
312
318
334
351
371
388
401
409
393
369
357
363
367
373
382
402
411
396
394
397
398
330
659
456
393
390
397
401
414
435
444
452
451
433
404
395
400
406
414
430
436
418
413
411
409
343
659
467
397
394
394
403
416
426
440
444
439
413
386
374
369
370
383
406
398
377
369
366
365
272
660
357
333
331
331
334
348
357
365
363
354
325
299
293
293
292
312
323
312
294
289
292
280
336
531
284
272
278
285
298
318
331
346
349
337
305
293
291
298
307
319
341
335
323
324
328
326
322
619
329
322
322
332
344
356
377
387
392
378
346
328
325
327
334
335
336
349
366
350
341
340
337
292
529
421
314
300
303
311
320
333
352
363
368
353
327
309
308
311
313
313
320
335
343
323
320
322
321
240
652
346
310
308
312
324
337
355
370
379
379
362
339
328
332
337
340
352
380
374
354
356
352
355
274
659
351
341
339
347
358
376
391
402
408
400
373
348
345
345
350
354
375
386
369
357
354
355
327
514
527
344
338
340
349
361
374
390
395
399
381
349
334
335
340
343
346
364
376
359
351
353
352
324
513
503
344
335
339
347
356
372
386
397
398
377
350
333
331
333
336
337
339
355
359
341
335
335
335
257
651
361
315
310
316
321
332
347
358
366
365
345
317
305
306
308
312
313
316
330
342
326
320
321
322
269
565
388
310
305
308
319
328
344
362
370
375
362
333
318
320
324
329
333
339
360
364
350
344
346
345
264
655
373
337
332
338
354
362
378
393
403
401
383
359
347
347
348
354
360
382
385
370
359
358
358
303
601
438
349
331
342
350
359
377
388
399
396
377
350
335
330
332
334
342
370
366
339
333
333
330
229
659
334
311
304
312
325
341
354
367
367
365
342
315
308
311
311
318
328
349
335
319
320
317
310
332
584
301
289
291
294
305
320
335
345
349
336
306
286
279
282
283
285
291
311
307
288
283
283
279
182
650
291
275
276
288
300
310
326
336
343
341
316
296
293
302
310
315
325
334
352
351
335
330
332
331
254
656
329
313
313
323
331
343
358
368
374
368
341
314
306
306
309
312
314
321
337
334
315
314
313
311
248
627
306
290
293
302
313
329
345
360
369
365
342
315
313
315
318
325
333
342
363
374
358
359
362
366
281
659
391
362
361
367
373
380
390
399
402
395
375
350
345
351
358
366
371
385
400
389
374
371
374
365
391
636
356
346
343
347
355
364
376
385
388
380
353
335
332
333
338
341
352
367
361
342
338
336
334
270
634
322
305
308
310
320
335
353
366
374
371
345
326
320
323
329
335
338
355
365
349
344
344
344
290
577
397
326
322
330
340
353
367
388
395
400
388
361
349
350
357
362
368
384
402
397
382
381
384
381
328
647
376
365
369
378
386
403
418
431
443
434
408
378
371
367
370
370
376
399
388
363
358
357
353
296
637
349
333
335
342
355
370
381
393
398
389
360
334
324
322
324
328
345
348
327
317
311
314
285
452
422
306
297
306
313
326
342
358
367
370
356
322
308
298
301
305
315
332
337
325
315
319
321
258
600
358
315
313
318
326
340
352
371
381
386
366
342
328
331
335
340
343
351
366
357
343
340
346
341
315
607
339
327
332
336
349
362
377
392
395
393
367
344
336
337
342
345
348
351
364
364
349
341
345
344
263
654
350
329
329
334
340
359
375
392
402
409
387
364
357
357
358
360
360
375
383
374
361
351
350
344
359
549
346
332
335
345
352
368
379
389
389
378
350
322
314
310
318
312
324
339
325
308
302
306
296
273
583
302
289
291
301
315
331
350
363
370
362
340
319
312
319
323
331
346
365
349
333
324
325
314
328
575
319
305
311
319
332
348
364
374
379
373
343
321
318
325
328
333
339
361
364
347
341
341
340
269
643
370
324
320
327
346
356
374
393
404
404
391
359
349
346
350
348
357
375
376
353
352
346
341
274
629
369
324
323
328
337
353
373
388
395
400
376
341
325
324
323
321
323
341
329
298
288
277
271
191
612
268
244
245
245
256
269
274
283
276
271
235
201
187
180
178
172
181
192
176
158
153
158
148
174
404
161
156
167
182
204
227
252
267
279
275
253
240
244
257
272
285
312
331
326
317
324
334
320
456
553
360
357
371
389
412
431
454
468
473
462
437
419
419
422
430
440
469
461
442
439
439
439
371
661
436
427
428
434
445
462
474
485
488
480
454
428
420
423
427
435
454
456
437
427
423
421
358
659
497
396
386
388
390
398
410
420
423
419
399
370
350
351
353
358
364
379
384
365
357
356
355
286
640
387
334
326
329
335
346
359
367
373
372
356
327
315
316
319
324
331
340
358
353
338
338
336
336
303
611
331
315
312
317
326
339
351
362
368
363
340
318
313
317
323
326
332
338
353
359
342
342
339
342
259
652
357
321
321
323
331
346
356
367
373
374
357
330
314
319
324
328
329
342
359
352
336
337
339
332
312
586
330
316
315
322
327
340
351
360
359
354
329
301
295
297
297
297
310
325
318
297
290
288
285
228
590
276
260
253
259
263
273
287
296
295
287
260
234
231
233
234
241
266
274
260
251
253
256
233
405
398
259
259
264
276
292
312
333
343
345
336
307
292
297
307
314
328
347
370
366
356
361
368
368
366
650
371
359
360
370
381
395
419
430
440
434
409
390
387
390
390
394
392
398
414
399
382
379
374
367
368
639
359
346
342
352
358
369
383
393
394
383
354
331
327
328
331
333
334
338
351
358
340
332
331
332
260
620
366
312
305
310
321
330
351
362
376
379
363
340
330
334
341
346
352
353
375
385
373
368
369
368
334
561
483
359
352
359
367
378
393
407
417
413
400
367
348
345
349
349
353
357
375
375
353
345
340
338
259
654
370
315
303
308
317
323
339
351
352
352
328
298
287
283
285
288
290
312
324
307
295
300
301
265
480
428
292
284
288
298
308
326
342
355
357
344
319
302
307
312
320
327
334
358
364
350
348
352
356
282
658
416
349
346
353
363
376
395
409
421
420
399
370
361
363
364
368
371
372
376
393
402
386
381
380
380
295
659
417
356
349
356
367
377
391
406
414
415
394
365
352
352
355
357
359
361
362
361
373
391
370
364
361
358
299
609
425
337
330
335
343
351
366
378
388
388
377
349
334
330
331
338
339
344
346
355
366
373
361
355
353
342
268
648
373
327
322
335
343
354
375
388
398
396
380
354
339
339
340
350
349
352
359
373
371
347
344
341
341
256
657
352
332
331
340
344
358
375
385
387
384
358
334
320
316
317
318
318
323
345
336
315
315
318
321
253
656
327
317
315
320
332
343
359
371
373
369
341
318
314
321
328
337
345
365
377
363
348
345
339
306
484
526
304
292
296
307
322
337
358
373
384
376
350
329
333
334
337
339
342
358
370
341
334
331
326
270
576
386
304
290
293
301
305
320
325
331
335
313
279
261
254
253
250
249
252
266
254
232
222
218
211
122
547
208
183
183
190
199
213
229
246
258
260
244
224
219
226
239
250
262
287
307
304
296
308
310
294
421
490
323
321
330
347
365
386
407
422
434
429
405
386
387
390
401
405
423
438
425
406
402
406
402
427
660
406
404
404
407
412
421
429
439
440
431
411
395
400
404
410
415
426
440
421
404
400
396
385
393
659
356
348
345
352
360
371
386
393
399
393
380
350
346
353
360
363
373
388
371
347
338
331
322
293
606
299
290
297
310
322
338
373
365
384
378
357
334
334
337
345
340
351
369
356
338
331
331
331
271
656
335
319
320
326
335
341
353
361
367
365
349
332
335
340
349
359
373
395
385
369
366
365
359
369
656
333
319
317
322
326
335
348
357
364
362
338
323
327
330
333
341
351
364
341
321
312
307
279
431
453
271
256
254
261
270
279
289
298
303
296
273
262
267
273
279
282
289
311
307
282
276
273
272
192
651
271
264
268
283
301
316
333
346
356
362
347
333
334
341
348
354
363
373
390
371
357
351
354
301
599
442
345
343
349
362
376
391
404
416
420
413
392
380
393
387
390
397
409
421
406
392
389
383
352
545
527
365
351
356
362
371
380
386
393
399
391
367
355
356
359
365
367
380
389
368
352
345
339
281
572
365
307
294
297
305
313
321
332
337
342
334
310
302
304
311
317
327
345
344
324
316
319
311
241
597
317
292
299
304
325
330
351
362
374
374
363
342
335
340
346
357
379
381
359
352
349
347
270
636
354
320
316
322
328
338
348
358
362
361
343
315
307
306
312
324
346
347
329
325
328
324
251
644
333
313
311
320
329
340
351
365
369
368
345
326
322
325
332
353
369
361
351
351
355
341
462
514
358
349
357
364
372
388
407
410
410
395
368
350
345
348
359
376
380
363
361
365
367
291
658
381
353
354
359
374
377
392
398
401
396
373
349
340
341
342
359
362
343
334
331
327
258
622
351
307
300
303
308
312
319
325
327
320
295
268
257
258
262
279
289
275
265
264
264
211
509
315
253
246
253
264
272
290
305
316
319
310
284
281
288
295
309
335
344
332
333
340
348
273
655
366
348
355
364
372
391
408
418
422
425
399
378
371
376
383
390
410
423
404
393
394
392
306
660
424
378
373
377
383
396
411
420
421
417
394
367
357
356
357
368
390
391
370
365
364
364
291
660
361
346
344
348
356
366
380
385
384
375
344
322
317
319
324
324
342
353
337
321
320
320
248
607
363
295
287
291
296
305
319
327
329
329
307
275
266
272
275
283
288
300
308
288
271
262
259
160
604
295
266
278
295
316
332
358
381
384
386
363
338
334
341
342
344
335
335
338
320
302
301
306
265
552
423
348
347
365
372
385
406
422
429
429
418
389
377
376
385
389
401
424
422
396
387
383
382
281
660
393
361
359
364
369
382
398
411
410
404
380
355
345
342
350
359
379
395
383
364
361
361
320
570
512
350
341
344
351
365
377
388
396
391
370
336
322
318
319
323
327
351
351
330
322
323
321
233
659
331
314
309
318
327
339
358
371
376
369
342
317
311
313
316
319
322
340
352
331
329
329
331
240
659
362
320
314
318
328
343
363
374
382
381
358
327
319
321
322
331
337
342
356
368
351
341
339
337
244
659
369
324
321
329
342
351
366
381
384
379
353
322
305
302
298
298
295
296
298
313
301
285
281
278
254
359
440
246
233
230
230
234
245
255
266
269
256
227
204
204
202
211
215
222
243
261
249
246
254
261
187
587
314
279
279
289
307
329
348
369
384
386
374
350
342
344
350
360
374
393
408
391
389
392
392
324
660
483
392
390
393
406
418
435
448
454
453
437
410
403
400
406
408
414
436
425
398
384
384
384
288
661
407
387
387
398
407
415
431
438
436
431
399
369
365
363
363
363
370
390
387
366
359
362
359
278
661
362
344
341
343
348
363
372
383
385
382
353
330
322
325
328
331
339
362
362
340
332
334
332
256
659
329
310
308
316
328
342
360
375
381
374
348
322
317
317
318
324
343
354
336
329
326
328
250
653
385
317
314
320
330
342
360
376
388
384
362
335
325
325
328
330
341
361
355
337
339
339
332
363
607
334
322
325
334
345
361
376
390
395
385
356
336
335
335
338
340
344
352
369
356
344
344
344
303
536
461
335
327
329
342
352
371
390
403
406
390
363
342
345
348
340
345
346
367
370
355
351
347
347
265
659
387
339
337
336
350
361
370
382
391
393
370
340
330
317
328
327
330
352
357
329
321
317
316
222
659
333
301
294
304
316
332
350
364
370
368
347
324
312
314
313
320
327
354
346
320
314
321
314
268
658
317
306
310
316
329
342
361
370
373
365
336
310
309
309
310
317
337
350
331
319
319
318
263
575
421
303
296
303
314
327
343
363
373
374
352
324
312
315
316
322
326
340
357
338
331
331
331
290
543
454
322
318
317
329
340
358
376
388
388
372
340
325
326
329
334
336
341
359
365
345
339
343
337
238
659
352
323
321
322
334
342
353
369
374
369
342
311
302
299
293
292
289
292
307
296
279
272
273
269
222
583
269
254
253
259
269
283
301
311
318
314
291
271
268
271
275
284
294
317
323
300
300
306
309
214
659
342
315
315
320
335
351
373
388
398
401
376
354
347
350
354
359
364
381
394
379
370
372
371
330
592
539
367
360
367
372
385
403
419
428
431
412
380
365
364
368
368
373
376
391
397
383
374
372
372
302
657
454
361
359
360
373
381
396
414
419
425
403
377
356
351
354
354
352
357
370
365
341
335
333
332
240
660
352
334
332
345
348
355
362
370
371
370
348
323
319
308
326
335
328
365
364
344
326
320
315
216
658
320
275
268
276
289
306
327
348
357
358
343
312
309
310
325
325
334
344
361
334
319
309
306
272
518
478
306
302
316
329
343
365
380
392
395
378
350
328
330
324
329
327
335
348
364
347
338
342
341
264
648
387
337
329
338
350
364
383
395
410
405
392
364
348
348
346
355
351
366
386
373
358
361
363
344
484
572
365
357
361
363
374
386
400
408
412
405
383
367
365
368
368
371
376
391
375
354
348
346
334
354
657
323
314
315
320
327
336
345
351
351
338
309
290
285
281
277
272
278
293
289
259
247
242
238
118
656
220
207
202
208
215
228
239
250
256
257
236
216
213
217
223
232
237
253
278
266
259
265
268
229
486
388
281
278
283
303
320
342
361
373
382
381
357
344
340
347
353
356
375
397
384
378
380
385
359
520
533
384
377
388
391
403
417
431
440
445
435
411
397
391
394
395
398
418
427
407
398
403
400
339
657
476
395
394
396
402
412
426
434
438
435
419
389
371
371
370
368
385
398
397
373
369
368
355
378
624
351
343
340
350
358
370
380
387
386
378
352
331
324
321
324
332
348
344
318
312
313
309
217
655
308
284
284
284
292
303
317
325
327
322
297
270
262
263
264
267
284
298
289
277
277
277
272
317
519
286
276
280
290
304
322
340
351
358
350
325
309
305
314
318
322
332
349
360
343
338
343
344
268
658
392
339
339
343
354
367
382
399
409
405
386
359
352
349
348
351
357
359
363
384
390
371
371
376
372
330
658
371
357
352
363
370
389
404
417
424
417
390
367
359
358
358
360
363
361
373
390
375
361
359
359
326
523
526
347
339
339
347
358
373
386
396
391
381
348
332
327
329
332
332
336
341
361
358
335
332
328
331
241
658
324
305
305
308
314
327
340
352
353
344
313
285
275
272
270
269
267
268
270
283
286
264
257
259
257
158
632
266
240
238
244
254
272
290
306
315
315
295
272
268
269
278
285
294
298
306
312
324
353
339
336
339
344
282
643
422
345
342
350
360
373
389
408
421
424
412
383
369
367
370
374
379
379
383
385
389
408
409
394
395
394
389
395
657
381
374
375
379
389
397
411
424
423
419
390
368
360
360
363
367
369
372
374
377
391
394
378
372
372
372
311
657
373
357
358
363
370
382
399
410
414
413
385
360
348
347
347
349
350
354
347
355
371
367
355
359
341
344
342
641
348
335
333
337
347
364
378
393
397
395
364
334
320
310
309
307
308
310
314
332
332
312
304
301
296
211
655
284
272
270
272
284
294
308
320
332
323
300
272
261
263
270
271
273
280
294
316
310
298
295
298
288
393
479
301
301
305
321
333
347
370
375
382
376
347
334
325
328
333
334
340
355
373
358
345
347
348
336
431
588
349
343
348
355
366
376
397
403
414
395
373
353
352
344
355
356
363
386
388
370
365
363
366
287
659
420
351
350
351
358
376
385
403
408
408
386
358
349
342
344
343
348
354
373
359
341
333
332
325
309
643
322
308
312
316
325
337
354
363
370
359
328
306
301
300
295
299
306
330
331
308
303
308
308
215
659
329
298
294
295
308
316
335
350
354
352
335
304
297
298
301
306
307
325
341
326
318
318
318
302
433
518
318
312
311
323
333
352
369
383
391
384
355
336
340
345
352
356
360
381
385
366
365
360
362
290
660
418
353
350
355
367
379
399
415
425
426
405
374
361
363
362
368
369
381
397
389
371
367
366
364
306
659
348
342
341
349
354
371
387
398
404
395
368
343
339
338
341
342
348
374
373
351
342
342
342
256
660
381
334
320
328
336
346
359
369
380
373
351
321
312
312
315
316
321
330
352
334
320
313
313
302
329
600
300
287
287
293
306
317
332
345
350
343
311
291
289
295
296
303
305
309
329
329
309
304
305
310
224
657
321
303
309
316
330
343
358
377
387
385
360
333
332
331
338
343
349
352
357
376
385
364
361
360
362
272
659
391
350
347
358
364
374
390
403
413
409
388
362
347
348
351
355
355
357
360
374
381
364
355
353
352
298
586
436
329
323
322
327
333
345
351
359
361
344
316
296
296
296
299
302
303
304
308
324
326
307
301
303
303
235
640
300
284
291
294
305
313
327
339
345
332
305
276
268
273
282
296
308
323
338
362
371
358
352
357
360
263
662
370
344
336
339
348
353
365
373
382
375
353
328
319
329
339
346
356
358
362
381
371
352
342
339
336
255
659
325
315
314
320
327
335
346
357
361
353
332
300
295
303
309
314
327
331
345
350
336
333
325
325
255
654
377
347
343
350
356
354
362
368
368
361
340
306
294
302
323
340
350
360
377
378
356
351
352
353
266
660
373
335
326
328
335
345
355
366
377
378
363
345
336
341
345
351
353
366
382
365
349
350
352
339
414
575
348
339
343
353
363
377
389
399
399
388
358
333
329
336
338
345
353
375
363
345
349
345
338
348
589
338
322
326
330
343
353
367
377
377
370
340
320
314
312
322
324
350
356
341
328
328
328
299
486
475
322
315
321
326
339
352
365
376
374
360
334
315
311
312
315
328
348
350
328
324
323
322
233
659
344
303
298
303
312
323
339
349
358
356
336
310
301
304
310
317
341
348
331
322
322
321
286
516
446
313
306
311
317
330
347
363
374
377
363
334
323
322
326
333
339
357
371
355
347
348
350
329
487
519
348
340
342
352
363
378
396
406
411
397
361
347
345
351
355
359
362
384
386
365
358
356
355
261
658
365
337
334
339
350
364
385
396
404
404
379
354
345
347
350
359
367
391
388
363
359
359
356
268
660
371
346
340
348
353
364
384
398
400
394
367
341
329
330
330
336
357
367
357
337
336
333
313
441
567
321
311
314
323
335
350
367
378
380
361
330
313
317
314
319
328
356
349
330
322
323
323
235
659
329
308
308
317
328
343
360
373
376
369
334
311
303
307
307
314
313
333
338
323
314
313
312
226
651
342
290
287
286
293
303
312
325
328
322
291
255
238
234
233
230
230
230
231
243
254
232
227
228
228
145
562
269
220
220
224
236
254
273
291
305
309
294
267
260
261
272
281
291
300
312
336
347
331
336
342
344
261
659
373
350
355
360
379
398
417
438
448
446
428
398
392
392
400
403
415
435
429
411
409
407
408
341
661
404
394
395
397
408
423
440
451
452
439
411
387
378
374
379
385
410
410
393
374
369
365
296
639
451
332
326
331
338
349
363
377
389
384
366
337
331
327
336
339
347
366
347
329
324
319
317
343
647
305
294
294
302
311
325
344
356
367
358
328
311
314
316
325
332
337
355
366
345
337
336
332
259
654
371
314
309
316
325
338
355
372
382
384
364
337
321
322
330
333
337
338
346
368
364
347
346
349
342
367
607
341
334
339
354
358
368
385
403
409
401
378
350
344
348
356
355
358
359
380
394
369
367
364
363
278
658
383
343
340
342
353
362
378
397
400
405
384
353
342
337
343
346
348
355
370
378
359
349
347
346
295
586
436
334
328
329
340
348
361
377
386
386
371
343
324
319
320
329
332
354
366
353
333
335
332
311
439
533
322
308
312
317
328
339
349
358
360
343
309
289
287
283
291
289
305
316
302
290
286
290
269
389
466
279
272
278
283
298
309
326
338
344
332
301
290
288
294
301
306
317
340
344
329
327
331
331
245
659
351
322
320
329
341
352
361
380
390
390
369
344
334
338
346
350
356
357
373
389
379
369
361
359
344
442
558
348
339
345
355
363
381
396
406
419
406
378
360
354
355
360
362
366
389
393
368
359
356
349
280
652
397
331
325
323
339
345
363
374
380
377
358
328
316
311
316
312
323
342
347
328
320
319
321
269
573
412
311
302
303
314
322
340
353
364
368
351
324
312
313
317
318
327
341
360
353
340
337
341
341
293
655
340
330
333
339
350
359
376
391
393
392
362
340
337
341
347
349
353
363
380
382
360
354
355
351
255
659
344
323
321
326
338
345
361
374
377
374
350
319
307
304
307
307
309
306
309
322
309
288
279
275
265
254
515
251
234
235
243
254
264
281
295
303
297
274
254
251
252
261
266
271
279
304
313
294
294
289
296
226
607
352
299
295
307
321
332
349
367
383
384
372
348
334
337
342
349
350
359
378
394
376
368
368
368
332
562
541
362
358
360
373
383
398
415
425
430
417
389
369
370
372
375
381
386
391
414
411
394
392
391
392
298
661
402
377
376
383
393
400
417
426
435
433
410
378
369
367
371
371
372
376
371
383
402
380
373
368
368
328
544
511
347
339
339
347
356
368
379
389
394
380
351
327
320
325
324
327
329
329
349
357
337
328
326
318
272
548
414
309
305
313
320
330
347
363
369
367
363
323
315
312
312
318
316
325
337
354
335
320
311
312
297
353
569
296
284
279
286
288
298
313
318
321
305
279
256
251
251
255
254
268
290
276
252
246
249
246
217
601
248
239
240
250
263
281
302
317
324
321
296
282
285
292
299
312
322
359
351
332
333
334
345
239
662
364
347
353
359
371
385
404
416
421
420
398
380
371
375
376
377
382
402
408
383
368
370
371
308
660
548
364
359
363
372
383
397
413
419
421
407
378
361
358
358
358
362
364
378
393
372
362
359
359
315
564
532
346
330
337
343
348
363
375
382
384
374
344
323
322
319
321
321
325
340
346
317
309
305
301
217
631
330
285
278
282
291
302
317
328
334
335
322
294
282
280
285
289
293
305
328
323
303
303
302
297
270
623
303
285
295
297
304
325
343
353
356
359
331
305
299
308
310
315
326
351
343
326
325
331
329
252
654
341
324
326
335
346
360
375
388
396
396
376
352
346
350
355
360
367
387
393
375
369
369
371
317
604
453
358
347
352
355
368
382
393
403
401
391
362
342
338
341
344
350
368
376
355
347
345
345
292
583
421
335
326
331
339
346
362
373
381
381
366
337
320
318
322
326
335
353
353
333
330
333
334
245
656
344
323
317
324
336
347
361
374
382
377
356
329
322
325
328
335
356
360
345
340
343
342
283
628
395
340
335
340
348
359
372
389
395
398
375
352
340
340
342
343
356
371
363
348
344
346
345
304
644
346
333
331
339
348
357
371
385
391
385
359
337
331
333
336
339
356
363
346
338
338
340
287
595
404
334
326
331
338
347
362
374
384
387
370
343
328
328
331
335
347
360
339
336
336
336
287
570
402
329
325
326
336
343
357
371
380
385
367
339
328
324
327
331
332
352
361
347
338
337
338
298
530
442
327
315
317
327
333
347
359
365
367
352
329
311
306
313
301
298
305
316
310
281
272
267
264
179
616
264
246
243
253
261
275
291
306
317
308
294
274
268
272
276
281
288
300
321
318
303
307
314
312
322
607
322
314
317
332
346
361
383
399
408
403
377
357
354
357
362
366
371
374
384
401
397
384
386
385
379
400
654
376
370
374
383
393
405
420
432
438
429
403
380
376
377
379
378
379
382
379
382
398
400
381
381
375
375
315
658
372
355
357
363
369
376
390
404
410
408
384
356
346
343
343
345
350
350
368
381
362
352
350
346
313
500
479
330
318
321
327
332
348
360
366
362
350
319
296
292
287
291
292
294
313
312
286
273
269
266
190
548
298
235
223
227
232
243
258
273
278
277
262
232
222
217
223
226
233
246
268
268
252
258
262
268
191
643
294
278
281
293
310
325
348
368
379
379
360
338
335
340
344
353
361
373
398
395
378
380
381
385
318
660
389
373
378
384
394
403
419
433
442
437
413
390
382
381
384
388
388
396
413
406
388
388
386
386
317
659
377
365
362
368
375
386
399
413
419
412
385
356
350
349
350
350
353
358
375
375
356
352
356
350
266
659
365
335
329
335
343
352
367
381
386
386
363
335
326
319
325
326
327
332
347
358
345
332
334
335
309
470
486
331
321
323
334
341
356
372
381
383
377
347
328
321
321
327
328
336
359
359
340
333
333
333
259
648
382
323
319
325
333
343
361
376
385
386
367
342
324
327
327
333
336
340
358
368
349
343
345
347
300
568
464
339
332
336
344
353
367
382
392
394
380
349
333
330
331
334
336
339
339
340
353
369
351
345
344
344
286
595
427
330
325
328
338
345
359
376
382
386
377
346
328
324
326
331
331
334
336
336
346
365
348
342
340
341
307
505
478
330
319
324
329
338
350
365
376
379
369
341
320
315
316
318
321
324
325
327
332
351
350
336
337
337
337
283
650
339
322
321
327
336
347
363
378
384
385
357
335
326
322
328
332
333
333
337
346
361
352
342
342
345
337
357
596
342
333
336
341
351
361
376
386
393
389
358
334
326
327
328
335
335
337
356
365
355
337
337
340
328
374
581
330
320
322
328
341
353
366
378
384
375
350
323
318
318
319
319
324
337
355
342
327
323
326
326
297
645
325
308
309
312
325
340
361
372
381
371
347
321
314
317
318
319
328
345
352
333
326
322
324
302
455
527
321
315
317
328
340
352
372
384
388
374
345
328
324
326
331
333
333
346
367
366
352
351
356
354
275
659
396
339
335
335
344
353
370
389
398
399
380
348
332
330
332
331
330
330
331
347
344
325
321
321
314
231
647
330
292
286
286
291
298
312
318
324
322
294
257
237
232
227
224
222
220
221
220
232
246
226
223
226
228
164
507
287
223
222
233
242
261
280
302
316
324
313
292
275
282
286
299
305
312
324
327
346
367
351
352
358
367
300
657
444
371
370
375
384
399
416
435
444
449
434
405
388
390
386
395
398
401
411
430
416
403
403
401
402
377
660
391
389
389
396
403
416
433
444
447
440
414
386
379
378
376
376
381
398
406
381
370
363
361
328
524
549
339
327
328
331
340
354
365
373
371
356
323
300
295
295
299
299
311
330
320
301
299
298
297
206
656
301
278
278
284
288
303
318
332
338
334
308
278
268
268
270
269
270
282
298
284
272
270
273
272
226
604
275
264
267
276
290
306
326
345
355
356
329
306
301
306
312
318
325
337
359
354
343
345
350
353
277
659
360
350
350
359
370
386
404
423
433
432
409
383
375
378
381
384
389
394
414
415
398
395
394
392
315
660
429
378
375
378
385
393
409
423
430
430
411
380
365
362
363
363
365
367
382
387
369
360
357
356
320
523
460
341
333
337
342
347
361
376
380
383
370
336
312
303
304
305
303
304
317
323
310
297
293
292
288
279
536
286
269
274
279
291
304
317
332
332
334
311
285
277
280
283
291
298
321
331
314
309
308
314
299
393
533
316
310
313
322
335
350
365
376
380
375
349
326
323
326
331
339
356
371
361
348
347
349
350
294
659
351
343
344
352
362
376
393
409
416
414
386
362
356
356
361
364
370
385
400
384
374
375
374
366
412
637
358
349
352
358
367
378
393
406
411
403
373
347
345
345
347
349
351
356
375
374
358
356
355
355
265
660
368
339
334
341
349
359
371
386
396
395
375
348
330
327
329
328
333
338
349
353
337
332
332
333
258
638
367
318
312
317
325
336
353
366
379
379
365
335
323
319
325
326
330
343
363
352
330
331
329
328
276
646
329
315
317
323
335
345
362
374
379
373
349
324
318
321
322
327
339
361
362
336
328
327
325
245
657
373
315
310
315
323
338
354
370
380
381
363
334
322
323
323
328
336
355
352
327
328
327
327
235
660
355
321
317
317
329
339
357
370
381
378
356
333
323
321
329
327
342
366
364
342
341
341
343
254
660
380
328
326
332
342
355
370
382
389
382
362
336
329
331
336
336
346
369
369
350
340
335
329
237
660
348
305
296
304
300
309
332
333
333
329
307
277
260
250
247
250
266
281
253
233
219
215
204
249
514
188
178
178
187
199
218
234
252
254
249
227
218
225
230
246
262
288
285
263
258
264
268
175
660
284
281
286
301
315
338
360
378
386
398
375
363
367
375
379
391
397
425
430
414
405
407
412
333
662
598
401
396
403
410
421
434
447
452
455
433
409
398
401
407
410
416
428
453
446
425
420
419
411
334
662
386
371
366
372
379
395
409
425
431
425
398
374
370
371
373
374
382
403
402
374
363
353
346
241
660
349
305
298
303
314
325
341
353
362
361
339
309
296
300
305
307
310
326
343
326
318
318
317
287
476
457
311
304
311
321
333
348
364
372
379
369
343
328
326
333
338
343
352
373
365
349
351
353
353
289
656
349
332
332
336
346
355
369
384
387
383
356
332
322
326
329
334
345
368
371
351
348
345
345
257
658
372
334
325
332
339
349
362
373
381
382
363
336
328
327
332
337
350
369
369
351
349
349
348
256
660
362
326
320
326
333
342
354
367
373
367
345
317
306
305
306
312
316
325
343
332
320
320
317
311
320
575
306
293
295
302
312
326
340
353
361
354
326
306
300
305
310
318
325
336
358
353
339
337
338
335
286
642
329
315
315
321
331
340
357
369
375
369
342
316
308
309
310
315
317
325
343
344
324
319
317
314
224
642
325
289
288
293
299
312
325
340
350
352
332
305
294
296
302
308
313
322
343
349
335
331
333
334
263
622
371
320
315
323
332
346
364
379
389
393
379
350
337
337
342
350
356
362
380
391
374
369
370
371
328
556
475
355
349
350
359
369
382
396
407
411
397
368
350
347
351
356
361
368
387
391
375
367
369
367
294
648
399
346
341
342
350
362
374
389
399
399
383
351
336
336
337
340
344
355
370
367
352
349
349
345
263
655
346
322
318
324
330
339
354
367
377
375
352
325
318
318
323
327
347
360
346
338
339
341
322
438
496
331
324
326
331
340
350
367
378
381
373
343
326
324
327
338
346
365
373
356
350
352
350
260
656
357
323
319
322
328
343
355
371
381
380
355
330
319
320
325
331
354
368
356
344
340
341
330
374
597
329
317
322
325
338
352
367
379
376
369
343
326
321
327
334
350
369
362
346
340
338
336
294
658
330
319
319
329
337
349
367
376
382
372
344
324
322
324
326
339
363
360
339
335
334
337
233
660
340
319
313
323
331
346
360
371
377
372
345
323
317
319
328
331
351
367
354
344
343
347
334
408
600
336
325
328
339
347
359
372
381
385
375
346
322
322
324
327
331
332
342
357
341
329
325
323
307
369
530
298
285
282
288
293
303
317
327
330
323
297
273
272
273
279
283
290
298
319
316
300
302
303
302
234
636
310
293
293
303
312
326
341
355
364
362
341
316
312
313
320
325
327
342
359
350
338
333
336
331
291
619
325
308
310
311
321
332
344
353
358
357
332
305
298
302
307
309
317
337
347
328
330
330
328
283
566
407
325
322
327
337
351
364
381
389
393
380
356
339
338
341
348
355
375
389
375
362
364
360
340
476
570
353
347
349
358
367
382
397
408
406
396
369
350
347
349
355
361
383
389
370
362
363
359
310
585
480
342
335
342
346
360
372
389
395
399
380
352
335
335
335
338
342
350
371
367
351
347
348
350
254
659
355
331
328
333
343
355
371
383
389
389
365
337
331
330
334
337
340
349
366
370
351
346
344
340
249
659
352
313
308
310
316
321
330
340
344
342
318
284
271
269
269
271
270
273
277
295
292
273
267
266
267
177
616
271
247
247
258
269
284
301
318
327
330
312
289
284
288
298
306
313
330
351
349
337
340
342
343
294
650
344
331
333
344
355
369
384
400
410
404
379
361
352
357
362
367
376
397
404
387
381
383
378
299
660
415
361
362
367
375
388
404
419
427
429
410
381
366
364
363
369
378
400
395
375
368
370
369
274
661
373
349
344
348
355
365
371
387
386
384
356
324
312
311
313
318
340
341
319
306
303
305
254
548
409
300
296
298
301
317
331
347
360
362
351
318
307
307
311
318
343
350
332
324
319
319
277
536
447
309
304
311
318
327
343
358
370
372
361
329
320
321
324
336
356
365
347
341
344
344
293
602
444
334
328
333
344
357
371
388
399
400
384
358
347
349
352
362
384
389
370
365
368
367
284
660
403
347
346
350
361
367
380
400
396
400
379
355
348
347
348
360
375
372
356
350
352
351
272
658
346
328
325
333
334
343
357
368
371
368
344
318
314
314
322
339
353
347
332
327
330
317
367
562
316
305
309
312
321
333
347
359
360
353
325
303
298
297
304
324
329
311
298
297
295
239
559
368
279
270
273
283
289
302
314
321
321
306
277
263
265
268
276
297
300
284
278
282
285
182
658
300
280
278
285
298
312
330
347
355
357
336
315
313
319
328
339
364
371
352
348
352
353
261
660
390
346
343
350
361
375
392
406
417
417
396
371
361
365
365
370
380
400
395
379
377
376
370
367
657
365
355
359
365
374
385
398
409
413
405
376
351
348
349
352
352
363
382
377
363
363
368
361
380
638
357
347
345
349
356
365
374
384
388
380
350
334
329
332
338
343
360
371
356
342
339
338
285
571
415
324
321
321
331
347
364
383
393
396
376
350
328
326
323
327
339
360
351
335
333
336
323
374
584
328
322
322
327
336
349
363
372
373
362
334
314
309
311
314
324
349
345
322
314
311
310
231
651
304
284
277
281
286
294
305
311
310
301
272
242
234
230
232
230
238
257
240
224
223
222
201
348
397
219
213
219
229
244
262
284
298
305
299
277
265
272
278
292
302
321
347
340
335
340
346
334
453
584
356
354
360
371
382
398
416
429
431
423
397
380
379
382
386
391
393
400
418
418
402
397
397
395
332
660
385
372
369
374
384
393
406
420
422
419
394
368
361
362
365
370
374
378
391
404
384
378
375
374
305
645
438
357
351
358
364
372
383
398
405
408
392
365
350
347
352
355
358
361
366
381
390
369
363
360
361
268
658
376
336
332
334
342
355
370
380
384
388
369
344
329
328
332
334
335
344
364
364
350
340
342
337
251
659
354
327
321
322
327
339
351
366
375
371
351
324
312
311
312
317
318
330
347
339
320
319
316
314
313
608
308
296
295
300
306
317
328
339
340
329
300
274
262
262
261
261
262
272
286
272
259
257
258
238
336
448
243
236
236
244
254
270
286
298
306
299
275
259
258
263
271
279
285
298
320
317
310
311
318
316
307
622
326
317
323
332
344
359
382
395
403
402
379
357
354
357
361
366
371
378
394
406
390
386
389
389
319
659
456
381
374
380
387
397
413
426
437
438
420
391
376
373
375
377
382
383
394
407
401
386
389
380
376
409
629
373
365
366
371
378
389
404
415
419
410
385
360
350
351
352
353
359
379
383
361
357
359
355
278
658
394
342
333
340
343
355
370
381
385
382
363
335
319
313
315
318
319
333
345
326
310
306
301
282
387
495
283
268
272
277
284
300
314
326
329
318
289
271
265
267
268
276
284
305
315
301
296
300
303
234
613
367
301
297
308
316
331
349
368
380
384
368
344
332
334
336
343
348
353
365
383
369
359
361
360
330
526
534
355
345
349
357
367
382
400
411
416
403
375
355
353
354
355
357
359
372
386
369
359
357
355
324
481
503
330
320
318
320
325
339
347
358
360
345
313
291
288
284
288
289
289
302
313
300
289
285
288
259
418
428
282
271
277
288
295
312
330
339
343
333
306
285
282
287
293
297
312
330
332
315
315
318
318
231
658
337
316
316
327
334
349
367
387
395
395
374
347
341
342
349
355
367
396
395
378
376
379
378
289
661
423
369
367
371
382
393
408
425
432
433
411
383
375
375
375
379
385
409
405
385
379
379
381
287
661
420
365
359
365
373
383
400
412
420
415
393
362
351
350
351
352
354
362
377
372
355
353
353
353
266
660
350
332
329
334
341
353
367
384
389
387
359
330
320
317
319
319
319
321
326
346
334
321
318
314
308
298
610
300
284
283
287
292
303
317
330
331
326
297
271
266
265
265
272
274
277
286
306
301
289
289
294
290
301
572
300
289
292
302
312
323
343
359
367
362
337
315
311
309
314
318
321
326
332
352
355
338
339
341
343
259
657
351
331
328
337
346
355
374
389
397
399
376
349
340
341
343
347
353
353
359
378
382
368
363
370
364
279
659
382
355
352
359
361
376
393
409
413
411
390
360
348
348
346
351
356
359
379
380
358
354
351
356
277
659
401
344
336
341
349
359
374
385
395
395
380
352
336
331
334
336
339
348
365
363
344
345
345
344
256
659
354
333
327
333
338
352
370
381
390
386
360
337
325
327
324
327
334
350
361
345
334
336
337
309
489
521
328
320
328
332
341
356
372
383
388
377
347
330
328
322
331
326
330
354
355
332
320
316
309
243
607
360
292
286
286
289
303
311
326
330
334
316
283
260
251
247
251
261
276
284
269
253
255
254
219
456
394
257
243
252
260
270
289
302
317
321
308
283
272
275
283
290
301
324
327
307
304
306
309
230
659
373
311
309
315
324
335
357
375
385
386
369
345
336
337
341
344
358
387
388
366
367
368
372
287
661
464
381
380
388
402
416
437
448
463
460
441
412
408
405
407
410
412
423
434
412
400
391
389
363
498
654
356
343
352
354
363
371
382
391
386
364
337
312
308
306
306
307
304
309
331
316
291
293
293
283
332
559
279
272
274
280
292
308
320
334
337
337
311
291
285
293
293
301
311
325
330
312
313
317
323
235
658
335
316
317
322
339
346
365
376
391
391
371
349
338
339
341
341
353
375
368
347
348
344
346
335
658
347
346
345
357
371
382
400
406
409
401
379
361
356
364
362
369
388
392
368
351
338
334
255
656
426
316
316
317
331
341
361
388
391
392
370
337
319
310
305
305
317
339
334
316
317
318
320
267
645
321
303
306
311
323
333
348
361
366
359
335
313
306
304
306
307
321
335
316
305
300
305
276
447
437
295
285
285
299
295
310
321
337
340
334
304
285
283
288
290
295
321
326
304
301
304
307
250
577
388
306
305
311
321
336
353
371
379
382
367
340
330
320
328
334
350
373
376
356
354
358
359
275
660
376
364
366
370
384
399
413
429
437
434
413
390
385
387
377
383
397
406
384
377
376
376
337
578
528
363
354
356
367
373
389
399
404
402
386
354
338
339
338
343
347
374
367
348
344
341
341
250
660
332
322
321
327
338
347
363
371
377
371
343
316
307
304
304
311
315
331
320
305
304
302
295
341
499
297
290
292
302
311
321
343
352
356
348
325
306
302
300
304
308
324
321
300
295
288
289
217
638
301
288
281
288
298
309
320
326
329
322
302
272
252
250
250
258
279
278
260
250
253
257
169
634
271
253
258
268
279
297
318
334
346
346
328
309
306
308
317
337
357
354
337
337
341
337
403
622
350
343
343
354
368
386
403
417
425
418
394
378
373
381
386
410
420
403
388
385
389
344
650
560
386
384
381
391
399
409
420
432
416
390
365
351
354
348
361
381
382
352
364
355
346
250
662
368
330
331
341
356
380
390
398
410
401
366
369
343
336
352
372
380
355
339
336
348
224
661
389
315
319
321
321
347
358
369
377
376
359
338
329
327
336
352
377
352
341
344
344
265
656
448
310
303
308
314
328
339
351
366
367
358
334
332
335
336
342
362
351
340
335
345
302
521
461
338
333
331
326
342
349
359
367
371
365
336
320
320
318
334
342
332
327
315
316
292
504
446
332
322
319
323
331
338
340
340
337
331
306
294
289
297
319
325
303
294
294
294
208
643
313
278
268
272
274
288
302
312
322
325
298
286
282
290
300
326
330
312
311
318
312
257
655
322
311
315
327
334
353
372
383
388
382
362
345
340
341
351
368
374
356
353
353
358
284
659
369
352
354
360
367
377
397
406
412
410
380
366
364
365
368
370
380
399
387
376
376
377
334
583
496
367
360
361
367
374
389
399
408
405
392
363
350
351
350
355
357
363
375
387
370
362
355
359
269
657
373
332
332
338
341
350
366
378
384
380
358
335
325
323
323
326
328
330
343
352
334
328
330
331
242
657
348
320
320
325
330
343
355
367
371
368
347
321
314
320
321
326
331
346
358
347
337
335
342
261
658
393
333
326
331
335
348
361
375
381
379
360
335
326
323
328
332
335
354
360
344
337
340
339
247
659
361
325
320
328
337
345
364
380
385
381
359
335
325
327
326
329
329
333
353
350
330
324
326
318
325
598
316
300
300
304
313
324
338
348
351
342
313
293
289
286
292
293
296
307
324
312
303
301
301
250
535
386
295
290
296
305
317
331
349
358
363
347
323
312
310
314
316
324
331
355
355
338
343
339
339
342
625
342
332
335
339
349
365
387
394
404
398
370
351
350
351
354
361
374
384
368
357
356
359
270
659
381
347
342
349
359
370
384
399
408
410
382
354
348
346
352
349
359
371
367
353
353
350
337
412
560
348
342
331
337
345
358
369
376
381
366
337
322
317
316
323
331
346
359
338
329
326
326
261
603
384
316
306
313
319
330
344
359
369
365
352
327
311
316
313
319
332
356
355
334
330
334
334
238
659
337
321
318
322
330
346
357
371
380
376
355
336
330
334
333
341
355
366
347
335
334
330
289
555
450
326
322
327
335
348
367
382
395
395
384
358
347
345
345
347
344
344
347
360
345
334
332
335
301
519
476
335
330
337
348
357
377
397
408
413
397
363
343
331
323
315
314
310
308
314
328
323
309
309
306
292
372
499
306
298
302
307
311
321
327
332
330
313
284
254
247
241
245
246
252
261
281
280
259
252
255
247
201
554
245
227
224
233
243
258
274
289
295
293
274
255
252
258
262
270
275
290
315
313
302
306
312
311
289
633
325
314
321
333
344
362
381
398
406
403
380
363
362
366
371
377
385
387
397
419
415
399
397
398
396
355
660
385
376
374
381
390
404
419
429
438
434
411
387
378
376
378
377
378
378
380
386
402
392
383
383
383
362
478
593
372
365
371
375
384
396
410
418
424
416
385
361
354
353
351
353
356
358
357
366
377
375
359
356
348
342
299
631
333
320
317
322
328
340
353
366
372
370
345
313
305
305
302
308
309
310
327
345
329
322
327
332
301
496
483
326
325
328
338
348
357
376
379
381
373
342
327
323
320
324
327
328
346
357
343
328
329
331
294
516
486
325
318
319
326
337
351
367
377
380
370
341
327
323
326
332
335
343
363
370
353
345
347
350
278
638
437
340
331
335
345
358
374
390
402
402
391
363
350
350
351
353
356
357
373
383
363
354
353
351
317
518
522
341
335
337
344
353
366
384
394
398
391
358
340
334
332
336
340
343
351
371
363
353
353
354
352
337
652
346
333
333
341
348
359
375
385
392
385
358
337
330
334
336
337
342
341
351
366
353
343
342
341
324
407
560
331
321
324
328
339
349
365
376
383
373
350
329
323
329
329
333
334
337
349
358
340
330
326
329
290
532
423
327
317
322
327
338
351
360
376
368
360
334
308
305
306
309
311
320
337
340
319
309
308
305
269
507
417
300
290
295
303
311
324
340
344
351
333
310
290
283
286
286
290
299
320
312
292
288
284
284
203
651
289
275
275
280
292
305
320
333
340
341
316
291
284
291
294
300
308
332
337
314
311
313
316
237
657
363
317
316
326
326
348
371
383
390
395
378
352
342
343
349
355
359
367
391
386
369
365
369
368
279
660
364
352
349
357
369
386
402
420
420
413
383
356
342
339
342
341
342
353
372
359
350
353
357
355
387
657
344
334
330
335
342
356
372
381
383
374
346
327
321
323
321
322
323
342
345
324
323
324
324
260
644
401
323
313
324
330
346
362
376
388
391
382
351
340
337
340
339
341
350
370
354
346
345
343
335
365
577
336
327
328
337
347
362
377
391
393
390
366
346
340
340
342
345
361
371
360
348
345
347
341
307
616
339
324
324
324
332
343
356
363
369
360
335
307
299
301
303
308
313
332
333
313
316
312
317
229
644
340
304
303
308
316
329
343
358
367
364
352
325
312
310
312
316
318
330
347
339
324
319
320
320
260
648
329
311
314
322
330
340
360
372
370
372
349
324
318
314
319
321
332
352
355
330
327
333
331
237
658
356
324
319
328
339
349
367
379
386
382
365
331
321
324
321
327
329
340
367
359
343
345
347
348
257
660
357
343
340
349
354
372
387
396
403
397
377
356
346
347
353
353
361
382
393
376
364
361
360
322
551
551
345
336
341
352
358
374
391
397
404
391
366
352
354
355
358
357
365
390
379
364
360
358
359
265
661
350
339
334
339
352
365
381
395
400
400
376
352
348
351
351
354
354
358
372
383
366
353
355
356
290
634
470
329
319
325
331
342
358
370
382
383
370
340
327
324
322
324
326
328
333
352
350
331
327
330
327
243
654
329
306
305
309
318
328
342
352
358
354
334
308
297
297
300
302
308
310
323
332
316
308
308
305
262
500
396
297
291
291
298
307
322
334
347
347
338
313
293
292
296
299
303
308
315
332
333
320
319
321
324
239
645
335
316
312
325
335
347
361
379
384
385
366
343
334
326
331
334
339
350
370
359
348
345
347
343
296
649
341
327
328
327
339
346
365
376
381
377
357
336
329
328
327
331
338
356
356
333
327
329
333
248
658
370
329
326
333
336
351
364
375
381
378
358
325
316
312
315
320
324
343
347
328
319
315
316
277
468
431
296
288
288
295
303
317
329
335
335
321
288
271
270
271
276
278
283
301
308
293
290
293
297
246
534
373
293
290
299
308
321
341
356
367
374
361
334
318
320
325
327
331
336
339
360
362
348
346
354
358
282
658
392
356
358
365
373
387
405
420
426
425
410
384
366
371
368
374
371
378
387
404
395
382
379
382
381
327
660
377
367
362
370
377
392
401
412
418
406
387
361
347
349
351
354
357
367
389
377
361
360
360
360
283
660
356
342
339
343
353
365
380
394
395
394
366
346
335
335
339
341
343
350
370
361
345
342
341
347
262
659
351
332
333
336
342
354
369
379
382
378
351
327
317
318
321
325
327
329
346
354
342
328
332
333
294
510
470
323
309
313
320
332
347
362
371
375
360
328
309
303
302
303
307
304
305
318
329
309
300
300
299
270
425
452
283
270
275
277
287
300
315
327
332
323
294
275
273
275
282
286
292
297
300
318
329
318
317
319
323
267
588
406
324
322
329
340
352
366
384
397
401
390
361
347
346
348
353
357
359
363
367
379
391
372
372
371
371
321
601
466
363
354
360
367
373
390
405
416
415
401
374
353
351
350
354
357
363
362
372
387
376
368
363
366
357
365
642
358
346
346
351
360
368
386
401
401
394
371
344
335
337
339
345
346
352
372
371
349
346
347
344
268
657
397
333
326
329
337
349
363
380
385
386
368
337
325
321
326
329
332
337
349
365
353
344
343
343
337
364
629
336
328
331
338
341
359
374
385
390
382
356
329
325
325
326
332
333
335
344
359
349
339
336
341
333
331
620
335
323
327
334
343
357
371
383
388
383
358
333
325
325
327
331
335
337
342
356
368
352
347
346
348
303
548
451
337
328
334
341
349
364
382
392
396
384
355
332
329
330
334
336
338
340
342
354
366
349
345
345
349
298
571
435
336
330
336
339
348
361
376
387
389
371
344
320
313
313
316
311
317
319
335
338
316
307
308
304
250
537
363
282
271
275
271
279
290
302
304
302
285
249
229
218
219
215
221
217
230
243
234
219
220
223
224
172
562
238
229
233
241
259
272
292
310
320
322
300
277
277
282
292
299
310
331
349
346
339
340
350
350
324
658
361
353
357
369
380
397
415
429
437
432
408
384
383
385
387
394
402
427
429
413
407
411
411
355
653
556
394
388
395
399
408
423
437
447
446
429
399
383
381
383
385
386
398
410
401
387
385
385
382
313
659
369
357
355
361
367
376
387
401
406
401
374
351
346
344
346
348
352
364
376
362
352
352
350
332
433
509
329
316
316
324
327
338
356
366
367
355
325
302
292
293
293
293
301
317
311
292
286
285
287
202
601
307
265
263
267
274
284
301
313
322
321
302
276
263
261
266
274
283
311
311
291
286
290
293
238
547
375
293
291
292
305
317
332
349
359
365
352
324
309
309
315
319
328
355
355
335
334
341
340
269
648
400
336
331
338
349
362
377
394
403
408
390
362
352
354
361
365
368
386
400
388
382
380
384
377
371
657
372
363
363
369
376
391
409
420
427
419
391
368
361
362
366
367
372
386
397
379
375
373
374
350
506
545
360
350
351
357
364
376
391
402
405
392
363
345
339
341
344
347
354
370
373
358
355
352
348
271
649
372
326
323
325
330
342
357
368
377
378
360
328
313
313
312
316
310
324
338
322
313
316
317
315
306
585
321
307
306
310
316
326
341
350
356
353
331
311
305
308
317
315
325
341
338
317
316
318
322
236
658
344
322
321
326
335
348
364
376
382
383
360
335
323
325
327
329
341
361
348
336
330
334
330
282
654
323
306
308
310
319
329
345
355
358
350
320
298
296
292
297
300
309
328
324
310
302
302
305
209
655
312
288
283
291
301
311
325
338
345
344
314
291
284
286
291
298
303
310
331
336
320
320
324
323
245
648
354
313
311
316
326
338
352
368
381
384
367
342
333
336
340
346
346
350
357
376
376
362
366
364
367
284
660
366
354
344
352
360
372
384
399
408
405
383
355
345
345
347
349
355
361
381
381
361
358
360
363
287
659
402
349
348
352
357
367
383
392
397
398
382
351
336
334
334
338
342
362
373
358
345
341
343
334
388
601
337
325
328
334
343
353
367
380
384
372
342
322
317
321
321
328
345
360
348
339
334
337
333
293
651
333
318
315
316
326
335
349
357
361
353
319
292
286
282
277
278
283
298
290
268
256
253
249
145
601
251
207
201
204
205
214
227
240
244
240
218
190
185
186
193
202
222
239
229
228
232
240
237
306
484
264
260
270
287
301
324
345
361
371
368
348
335
340
348
360
371
394
397
386
386
392
398
317
661
441
395
394
400
411
420
435
448
458
458
437
412
405
409
410
413
418
428
441
431
421
421
418
414
402
658
400
397
385
396
400
413
425
435
439
428
399
375
367
363
360
362
372
385
375
359
357
353
353
281
655
352
332
336
339
343
352
362
371
376
372
345
320
313
314
317
320
338
349
336
326
327
329
316
372
559
319
311
311
318
326
340
354
364
372
362
336
319
317
320
325
333
352
357
342
340
342
344
285
616
406
336
331
335
345
352
367
381
389
392
376
351
339
340
344
348
355
374
373
358
355
357
358
277
659
377
345
343
345
353
357
368
384
392
389
370
343
333
338
338
340
350
364
362
350
346
346
346
264
657
367
337
334
337
343
347
361
375
379
379
359
332
323
323
323
324
342
358
350
337
332
336
333
286
646
338
323
321
330
342
351
363
373
378
372
348
324
320
320
324
330
354
354
337
332
334
333
295
526
472
326
313
316
326
328
346
357
364
364
350
323
306
304
307
311
322
339
334
316
312
314
311
226
657
312
294
292
299
309
322
340
351
355
353
328
305
302
305
310
316
323
341
344
328
326
325
325
235
658
345
305
305
309
318
323
339
350
357
355
335
307
299
300
305
308
313
325
339
325
316
317
317
301
394
497
305
292
295
305
312
322
339
352
354
348
320
307
301
309
312
317
318
332
355
347
337
338
337
337
322
604
342
328
334
339
351
368
385
394
401
394
369
345
337
337
339
340
347
366
385
371
359
361
363
339
480
537
358
347
353
368
379
390
406
409
408
395
368
342
340
344
342
350
370
381
366
355
355
357
321
525
521
349
346
336
340
359
368
384
388
386
374
345
329
328
326
333
345
371
365
352
349
344
344
245
660
356
328
326
327
339
348
355
373
375
372
346
327
323
328
328
330
342
358
345
328
323
321
319
374
599
318
312
317
322
336
350
364
375
379
366
340
324
315
322
324
324
340
355
344
326
321
324
311
393
572
308
296
295
298
304
314
329
329
332
320
290
268
264
264
265
265
269
289
285
261
252
256
252
152
638
263
231
226
233
240
254
270
285
291
288
273
247
241
247
246
253
261
280
300
285
278
279
286
261
449
458
289
284
292
304
316
336
352
370
376
368
345
329
333
341
348
351
356
369
394
381
373
376
382
373
431
655
379
378
382
389
400
417
429
443
455
444
414
393
391
394
399
402
404
407
422
430
411
407
407
405
326
660
482
392
387
388
397
406
420
433
440
444
421
391
377
373
373
367
372
369
382
392
374
364
360
360
318
540
493
340
333
334
340
348
362
373
382
378
367
336
317
313
315
319
322
328
350
353
330
324
322
322
243
646
363
306
298
306
309
322
333
345
349
350
334
304
291
288
295
291
293
307
324
314
298
301
302
300
278
632
303
292
289
304
305
318
337
349
356
350
328
303
302
308
313
314
331
358
341
334
323
328
326
301
649
314
306
305
313
328
336
345
352
352
343
324
302
308
314
312
318
331
335
304
299
294
289
236
564
360
287
283
292
297
314
323
338
347
349
337
314
295
297
303
306
325
345
340
326
334
332
330
348
611
342
338
341
355
369
384
397
407
416
414
392
372
379
385
392
403
428
426
400
395
391
393
293
661
451
373
362
367
371
378
387
394
399
395
379
358
354
357
351
360
372
383
370
362
365
373
336
581
582
358
359
353
366
368
380
392
390
389
372
346
329
325
322
321
334
350
334
317
321
318
301
413
485
310
294
297
305
307
317
327
332
335
330
302
283
280
281
288
288
313
310
297
288
290
300
223
642
310
298
302
307
317
331
341
352
362
363
348
329
328
332
342
351
362
369
344
334
330
328
250
649
380
320
318
324
335
344
352
361
365
373
357
334
324
327
331
337
349
362
351
336
336
333
301
498
450
324
315
318
326
335
343
354
361
363
357
334
321
323
328
331
341
355
343
324
318
314
287
430
416
293
278
280
288
303
309
323
325
327
321
299
282
278
285
284
297
313
296
282
281
279
241
485
352
281
284
293
303
317
335
346
363
368
365
342
332
338
340
351
374
375
354
349
349
353
267
659
367
347
346
349
357
369
380
389
392
392
377
355
350
351
359
385
395
378
365
359
356
292
642
441
349
347
356
369
373
382
395
397
397
378
355
347
350
354
363
380
374
351
354
346
352
390
628
353
347
350
356
362
373
379
382
377
362
332
312
314
317
325
346
355
340
327
327
324
248
654
367
314
310
315
321
334
345
356
361
362
347
324
318
323
332
335
342
360
344
330
326
322
287
527
417
315
310
309
319
318
339
346
355
352
344
325
300
295
298
298
312
320
306
296
296
301
257
531
354
297
291
299
307
322
335
354
357
362
352
326
310
312
321
318
337
349
346
333
335
338
323
448
486
346
335
344
350
361
378
388
398
402
392
371
354
352
354
357
372
391
386
363
360
364
346
443
570
353
346
347
353
365
380
389
393
391
380
357
335
329
334
336
354
362
350
329
331
333
286
575
437
324
313
311
315
322
330
343
348
344
323
295
277
278
276
279
293
299
279
271
265
262
188
577
300
245
243
245
253
265
282
295
299
300
282
255
250
251
259
261
275
298
302
287
290
294
296
278
591
313
305
308
320
334
350
368
385
392
388
365
349
348
354
362
367
371
389
405
390
383
387
391
318
659
437
383
382
387
396
409
420
435
443
443
426
394
388
386
387
390
393
407
417
408
396
395
393
365
530
534
378
372
373
382
387
402
409
419
415
402
371
351
347
346
347
349
359
374
364
342
339
333
302
440
457
302
286
282
286
289
296
307
311
304
284
261
241
233
234
236
236
258
262
240
231
228
232
153
574
286
243
241
247
260
271
290
301
314
311
294
276
273
279
288
299
320
343
336
327
332
333
310
509
535
341
343
343
358
373
387
404
411
419
401
374
363
366
368
372
378
394
409
394
385
383
385
347
582
578
382
374
380
385
396
408
425
434
435
417
386
373
371
370
373
377
382
390
404
391
380
380
379
330
609
514
366
357
359
367
375
385
399
405
406
390
363
348
346
346
349
352
354
367
377
363
352
349
351
277
625
389
328
322
325
327
332
346
359
359
361
339
304
285
287
284
283
292
308
313
291
282
280
278
203
575
317
268
264
276
277
284
302
319
322
314
302
276
267
270
276
282
293
320
321
303
300
305
302
259
649
304
299
300
308
321
341
353
365
372
366
340
331
331
334
339
351
371
382
362
357
360
361
271
661
405
358
348
360
363
374
392
402
412
409
391
373
372
368
374
379
399
405
387
378
376
375
290
661
472
361
354
357
360
371
384
392
394
391
365
340
333
332
334
331
349
355
337
327
328
330
259
640
438
320
315
319
328
332
347
359
362
365
340
310
298
297
296
296
308
333
320
302
302
302
293
372
561
307
294
300
308
316
326
339
347
344
339
304
287
286
287
288
291
306
324
312
302
304
310
285
480
483
310
298
297
301
308
321
333
343
348
338
316
303
303
305
307
315
336
339
321
318
322
324
229
659
334
307
300
303
309
314
335
349
352
356
335
319
312
318
321
330
350
356
344
331
332
327
280
555
414
324
323
332
352
367
386
401
407
407
396
375
359
360
360
363
375
390
373
356
351
350
333
467
557
347
337
339
345
351
359
375
378
382
362
332
312
308
307
310
330
337
318
309
310
310
272
529
398
303
294
293
300
310
320
322
331
329
312
284
273
273
276
283
307
308
285
283
276
281
188
643
306
272
273
282
294
309
327
341
345
349
328
308
309
315
323
345
370
367
350
354
363
359
404
657
369
363
362
365
374
384
400
408
416
413
395
389
398
400
408
426
433
415
401
399
397
337
660
578
383
377
381
388
395
407
417
422
422
401
374
363
361
360
364
384
382
359
357
351
357
263
659
362
336
330
332
333
341
350
356
363
359
332
312
310
307
311
319
343
340
311
307
305
298
238
616
298
277
281
286
293
304
314
324
329
319
301
279
279
282
288
303
325
322
304
302
306
304
302
610
309
296
301
305
319
332
347
358
358
357
336
320
323
331
339
363
378
364
355
350
346
281
628
449
323
312
319
330
341
360
375
385
394
383
363
362
370
377
384
404
401
374
362
358
356
254
661
356
340
339
346
354
362
382
391
394
392
366
348
341
342
342
350
376
374
357
356
359
358
303
661
341
327
318
322
325
333
341
347
348
339
312
291
287
287
287
289
303
316
298
285
278
278
231
498
387
268
258
265
276
283
288
306
307
301
289
266
261
270
285
296
309
322
347
333
319
316
318
293
484
513
327
324
332
342
357
374
387
396
399
389
360
348
350
350
360
368
388
402
386
376
375
378
325
633
499
374
369
373
380
392
404
415
421
423
403
378
367
367
370
375
383
401
411
389
381
379
377
304
655
430
351
340
348
351
360
374
385
388
386
368
337
325
322
324
325
335
351
351
333
326
324
323
234
654
324
300
298
300
307
320
336
344
350
343
322
298
289
290
294
300
320
328
314
305
295
298
286
430
450
290
278
281
284
296
302
313
322
329
310
288
276
274
286
296
320
329
316
311
316
322
270
560
411
318
307
309
316
328
340
358
364
363
343
315
304
302
314
325
352
359
340
341
345
343
255
660
352
335
338
345
350
359
375
381
383
381
353
334
337
344
356
379
389
379
364
367
363
307
602
486
344
333
339
346
361
376
388
400
402
384
358
348
348
353
367
389
393
382
384
390
392
335
661
384
373
367
371
380
390
402
411
411
396
364
335
329
328
329
335
359
368
356
357
361
361
269
660
374
344
343
347
353
362
367
375
378
367
337
313
306
308
313
321
347
349
331
314
315
296
245
561
359
286
267
271
280
283
292
311
308
319
313
289
288
294
289
303
333
343
322
325
327
327
223
660
337
319
307
324
338
334
345
371
372
374
359
338
328
332
330
341
361
355
324
325
324
297
475
570
323
310
317
322
341
364
383
393
387
386
358
350
352
362
375
400
402
390
381
378
364
261
661
364
332
319
314
318
328
347
349
363
353
333
305
298
303
306
316
334
325
283
269
264
239
359
523
242
233
227
237
236
260
261
266
278
278
266
274
308
324
350
371
399
419
404
403
395
395
296
661
394
366
367
382
383
405
413
436
435
416
388
363
360
355
357
352
347
387
367
370
375
373
336
527
578
352
348
351
359
367
359
380
368
367
348
310
297
303
303
312
332
345
358
333
340
330
316
212
655
312
285
271
282
292
320
339
344
359
356
328
302
300
308
310
318
345
352
341
339
334
336
239
660
413
340
338
349
366
379
396
413
429
412
395
355
352
404
353
308
342
366
366
357
364
366
355
473
605
378
363
368
357
366
373
389
392
397
382
363
352
356
353
359
364
390
382
354
355
345
344
318
653
345
329
328
340
343
357
365
371
374
360
333
313
312
317
323
337
364
366
350
346
347
343
275
659
345
326
329
336
346
361
378
386
390
379
350
328
325
329
332
336
347
368
364
350
346
347
335
392
610
335
323
325
333
342
353
369
379
384
371
341
325
324
329
332
337
339
347
367
356
346
343
345
310
507
501
331
321
323
329
338
350
366
376
380
365
336
320
320
322
327
330
335
342
359
358
342
340
339
332
332
621
325
309
309
313
319
330
344
355
361
352
325
303
301
302
306
310
314
316
323
338
325
316
316
316
244
608
372
304
299
303
311
322
336
350
361
364
348
321
308
312
315
324
330
335
343
359
351
339
340
341
323
436
536
333
324
327
334
343
356
371
381
387
376
350
334
333
336
342
348
351
352
362
376
365
357
357
358
308
572
466
342
335
338
345
353
365
381
389
392
379
351
334
335
338
343
348
352
355
370
370
354
354
352
351
276
658
351
332
330
339
345
355
369
380
385
379
356
334
327
330
335
341
346
347
350
363
370
353
350
348
349
254
659
364
330
326
333
340
349
363
377
384
383
362
336
326
327
330
335
341
343
345
357
369
353
346
348
348
277
630
405
330
324
329
337
346
357
369
377
379
365
336
321
322
327
334
338
342
344
347
365
362
348
347
348
341
356
610
339
326
329
336
344
354
368
376
382
376
350
330
325
328
332
339
343
345
354
367
356
347
347
346
308
522
470
335
328
330
337
345
357
371
381
384
371
342
324
323
328
333
339
343
347
359
369
355
348
345
346
280
603
407
334
322
329
333
338
351
365
370
370
349
315
298
292
291
297
300
306
317
327
314
302
299
299
254
509
384
289
283
285
290
297
312
326
330
322
311
279
265
257
262
272
279
294
318
310
294
292
296
290
293
595
302
289
290
298
310
323
340
349
353
342
317
300
296
297
304
313
335
347
332
321
321
326
287
531
483
322
315
319
330
342
358
376
385
387
367
339
328
328
333
342
351
379
383
370
372
374
379
285
661
428
364
360
363
371
383
399
