30
329
330
249
644
346
318
317
320
327
338
354
371
379
377
349
324
313
314
316
318
319
327
342
352
336
327
326
328
329
251
640
346
322
317
324
333
345
362
380
391
389
361
336
330
331
333
336
341
342
346
351
368
367
351
349
349
347
319
487
461
337
330
331
336
344
355
371
380
380
363
329
311
307
305
304
304
303
302
302
305
316
319
303
298
296
296
287
327
501
290
282
284
291
300
313
332
348
354
345
319
299
297
302
305
307
312
318
322
324
337
352
339
334
336
336
340
272
633
357
335
336
344
351
366
382
402
410
411
386
355
347
349
355
355
358
360
361
365
371
392
378
364
367
369
367
296
648
395
355
359
365
366
382
397
412
419
422
397
369
357
354
354
354
358
361
361
373
382
369
357
354
349
352
270
651
365
335
333
333
341
350
363
380
385
379
351
320
308
307
308
304
306
308
314
329
320
302
296
297
297
252
496
382
286
282
283
291
302
317
337
348
351
332
302
292
292
295
299
303
308
309
326
336
329
320
321
323
326
245
643
350
319
318
323
333
344
363
380
391
390
361
336
327
323
325
327
328
330
336
352
348
333
329
330
328
303
450
463
318
314
315
321
330
345
361
374
376
357
326
310
308
306
310
311
312
314
319
335
338
323
317
318
320
318
292
599
321
311
314
321
330
343
361
378
385
378
352
331
326
327
330
332
334
337
340
351
367
363
352
351
352
352
306
563
420
348
346
351
358
369
385
400
413
414
396
366
353
351
350
355
355
358
361
364
379
379
363
359
357
357
350
359
585
350
340
339
345
353
365
381
396
402
391
359
338
330
329
330
329
330
329
332
345
347
327
323
321
321
314
337
529
313
303
305
307
316
328
346
360
366
357
327
306
303
303
305
308
311
312
320
337
340
324
323
326
327
317
392
503
330
324
327
335
345
359
379
393
402
390
359
343
340
342
344
348
353
358
376
379
361
356
359
361
357
382
566
357
345
349
353
361
378
392
408
414
399
367
342
336
332
334
328
337
350
350
330
319
314
312
304
306
530
298
287
285
286
292
304
317
328
328
320
288
266
263
260
267
262
282
294
292
275
272
275
273
249
440
407
281
280
285
300
311
331
350
362
370
356
324
311
317
317
322
336
358
360
344
342
340
342
345
306
649
350
342
345
348
364
378
396
414
420
409
379
359
355
351
353
356
369
383
373
354
351
347
347
307
520
460
326
318
320
325
334
347
364
375
375
354
320
308
306
307
308
311
313
317
329
332
319
315
314
317
314
285
618
313
302
303
307
318
329
347
366
373
365
334
312
309
310
312
315
318
320
323
328
343
347
332
331
333
334
315
438
500
333
329
333
340
349
367
381
398
403
390
359
341
338
340
341
346
347
350
353
363
376
363
354
353
351
352
277
651
361
340
340
343
350
361
377
391
401
396
366
340
327
326
327
327
329
329
331
334
352
348
332
329
331
329
279
547
386
321
315
320
324
333
351
368
379
382
360
331
316
316
315
319
317
322
327
326
337
353
345
334
332
335
335
266
630
359
333
330
336
346
356
372
393
403
403
379
350
338
337
339
339
343
349
348
354
367
375
355
349
348
347
340
364
557
340
329
331
335
341
354
372
384
390
379
347
325
318
320
321
321
322
324
338
351
338
328
323
325
324
255
610
339
314
312
315
326
333
353
368
379
375
348
321
313
306
313
310
316
329
346
346
327
323
327
328
312
431
475
333
329
332
344
352
366
389
405
409
393
364
348
341
345
343
348
363
375
372
358
358
354
359
332
482
510
349
345
347
354
360
377
395
405
408
389
360
340
335
334
333
336
353
354
339
324
317
313
312
229
626
323
287
283
284
294
304
316
332
341
337
309
280
272
270
271
273
283
298
303
288
282
282
285
286
225
612
295
283
287
296
305
321
342
361
371
365
337
316
316
319
324
327
332
336
343
356
361
349
351
354
356
327
501
483
352
348
353
359
368
384
403
418
423
408
375
356
352
352
354
357
357
360
361
366
375
378
366
365
363
361
324
563
438
354
344
351
355
365
380
397
410
413
394
362
342
339
338
340
342
342
343
357
359
350
344
340
341
340
269
637
352
326
326
329
336
349
368
382
392
385
357
333
321
318
321
322
323
333
351
352
333
331
331
333
328
330
605
330
321
322
328
337
350
372
389
393
384
349
328
325
326
326
332
341
356
359
346
337
339
339
341
274
652
343
328
331
335
342
357
373
390
396
389
358
331
323
320
322
323
325
329
339
341
330
320
322
318
318
250
641
313
296
294
296
301
310
326
341
348
340
307
280
271
271
271
272
277
278
278
286
294
294
282
285
287
286
226
551
336
282
281
285
294
307
323
345
358
362
344
315
305
306
311
314
320
323
329
336
349
363
351
346
349
350
354
306
645
360
349
353
360
370
383
401
420
428
425
397
374
366
368
369
372
374
377
379
388
405
391
380
380
381
381
310
652
393
370
369
372
379
389
405
422
432
429
403
371
358
358
359
360
359
363
365
365
376
384
371
364
360
360
357
310
638
358
346
346
351
358
369
387
403
409
406
379
351
339
339
339
343
345
347
345
349
366
366
352
349
347
349
343
346
575
345
336
337
342
351
363
382
396
402
399
364
338
328
323
322
322
322
321
323
343
340
319
309
302
304
286
370
476
291
279
282
282
290
301
316
334
334
322
287
266
258
260
260
262
266
273
291
300
281
274
273
277
281
214
606
295
279
285
291
304
318
338
359
371
369
343
317
312
314
319
324
327
335
338
355
370
356
348
352
352
353
276
653
371
348
345
353
359
372
389
405
416
412
386
357
342
341
341
343
341
342
342
344
354
365
347
337
335
336
334
269
643
331
318
318
324
333
345
363
378
388
383
356
327
318
316
317
318
321
324
330
330
331
345
360
347
339
339
338
344
268
651
354
336
336
347
354
364
386
405
415
418
391
361
355
355
357
360
360
363
368
376
398
396
375
372
370
371
347
465
535
363
351
355
364
371
388
412
428
429
418
383
360
350
351
355
352
355
361
367
393
383
360
356
355
353
302
587
430
345
341
346
350
367
377
397
405
406
392
353
336
330
331
330
334
335
350
367
356
335
333
331
332
275
584
403
324
316
318
329
338
355
373
388
392
370
335
320
314
315
314
320
317
331
348
355
336
333
329
330
331
271
645
327
320
316
331
343
348
374
394
406
399
365
345
330
330
328
340
337
347
355
369
362
354
348
343
348
305
530
461
336
325
327
346
344
364
383
395
396
386
339
319
312
313
314
301
321
322
329
335
334
318
317
324
323
251
608
361
314
312
311
320
338
341
371
383
382
356
322
300
306
298
295
301
309
300
301
304
314
310
294
302
299
298
222
610
322
287
283
296
299
312
329
353
363
366
349
316
299
298
302
304
305
309
315
320
330
333
324
327
329
330
261
618
369
326
326
327
337
348
367
385
398
398
378
344
327
328
325
330
331
336
341
343
359
347
347
350
350
345
370
583
348
342
343
349
360
376
396
411
425
413
381
360
351
352
351
356
356
361
363
372
377
361
362
360
361
308
637
353
340
337
339
349
357
371
387
397
394
366
336
320
319
319
324
327
329
341
335
330
329
329
332
255
644
347
323
323
326
330
345
361
378
384
384
361
327
312
313
312
316
318
328
335
331
322
321
324
322
252
611
364
315
310
315
327
338
356
375
386
390
369
336
321
321
324
326
330
343
352
358
350
347
351
350
346
361
619
349
346
347
354
364
378
399
415
421
413
381
354
347
345
345
344
347
348
355
362
358
349
347
348
344
270
631
375
325
321
322
329
341
356
373
384
385
364
328
312
310
311
312
313
315
320
325
334
342
336
332
332
332
332
260
649
347
328
329
335
340
351
369
392
406
400
381
344
330
330
333
329
333
337
342
354
364
350
341
341
345
342
288
625
345
331
334
341
349
359
377
397
404
399
376
341
330
330
333
332
335
344
361
363
342
340
339
338
324
403
526
332
322
324
330
340
352
370
386
389
380
344
320
313
313
312
315
320
336
342
327
315
314
315
315
233
647
329
306
305
311
319
333
349
369
379
378
351
322
311
310
312
314
317
322
341
346
332
325
326
326
328
267
646
331
318
316
321
331
345
365
383
392
388
360
335
327
329
333
335
338
341
345
354
370
361
351
351
353
353
276
651
387
347
344
349
354
367
384
404
416
418
396
362
346
346
347
347
346
350
350
349
357
373
361
347
347
346
344
270
647
362
330
330
332
337
351
367
384
390
391
374
335
321
317
316
314
323
319
326
346
343
325
324
326
326
314
361
553
323
313
317
318
334
347
364
377
388
381
356
336
330
325
327
328
343
355
353
345
346
344
337
344
276
653
334
330
327
337
347
361
377
391
402
396
366
344
341
344
343
346
353
374
376
359
352
349
350
346
285
653
341
334
331
337
346
357
375
392
401
392
360
337
331
333
330
332
334
347
356
346
337
333
333
331
250
649
387
317
312
314
320
329
349
364
377
379
354
322
312
309
312
314
315
318
330
325
335
330
328
331
333
286
556
463
326
321
324
333
344
363
384
397
403
387
354
339
338
341
344
347
350
353
355
357
357
356
366
364
363
363
360
321
654
353
341
337
343
349
361
378
396
403
403
371
340
327
325
325
329
328
331
329
332
331
334
337
336
332
330
334
325
329
607
324
308
309
313
321
332
348
365
372
369
339
314
304
304
307
306
312
318
315
320
322
329
340
335
331
334
336
337
265
646
349
326
330
336
343
355
375
393
404
407
383
355
339
342
341
345
347
352
355
360
358
366
384
375
363
363
362
363
292
651
411
354
352
355
364
372
391
406
422
424
410
371
352
350
353
348
352
356
359
358
363
383
381
362
356
356
353
322
480
493
336
324
326
330
332
351
360
381
379
370
329
303
298
297
297
301
303
302
308
326
325
309
307
308
308
272
486
442
301
294
299
310
318
332
352
366
372
359
329
313
312
315
318
322
329
337
359
362
341
339
340
340
337
352
650
339
335
337
345
354
371
390
408
420
412
382
355
353
354
359
361
362
372
383
400
381
373
370
373
369
275
654
385
356
356
360
366
379
395
413
426
423
398
359
348
345
347
345
348
347
349
359
369
357
348
346
346
345
252
652
368
328
325
330
333
345
362
377
387
387
363
329
312
313
311
315
315
317
318
323
346
340
322
320
320
321
294
438
511
312
303
306
314
324
339
360
371
380
370
336
312
307
308
309
313
317
318
322
333
349
335
327
324
327
325
243
648
362
320
317
324
335
346
362
381
391
395
378
344
330
329
329
331
335
340
345
368
368
351
348
347
348
336
427
554
344
336
340
349
357
376
397
408
411
405
370
343
338
342
342
345
349
362
378
361
350
346
348
349
274
650
385
341
339
342
351
362
379
398
410
410
387
352
338
336
335
336
341
352
368
356
342
343
343
343
292
564
425
336
333
335
344
354
370
389
403
408
390
356
337
338
339
339
341
344
360
364
349
339
340
339
334
277
641
337
319
316
320
327
342
357
374
383
379
349
319
306
303
303
305
304
311
327
328
317
310
308
311
310
263
610
316
303
303
311
320
331
352
371
380
379
352
323
314
316
318
324
328
335
351
352
340
336
339
340
334
372
578
341
331
332
338
344
359
378
391
398
390
356
330
322
320
322
321
323
329
346
344
327
325
323
323
308
402
510
318
312
316
323
334
349
369
383
389
382
349
325
319
323
323
326
332
336
347
361
347
341
341
344
346
267
651
366
338
340
344
352
365
383
403
415
413
391
358
339
340
342
344
348
352
364
373
360
352
353
354
353
279
651
371
345
344
352
357
367
384
401
411
411
384
354
339
338
339
339
342
345
357
365
350
343
341
341
338
278
644
344
325
324
329
337
348
364
381
390
387
360
327
315
315
317
318
320
331
346
336
324
323
325
327
264
582
379
319
316
321
331
342
357
376
389
393
375
342
324
323
325
327
330
334
334
346
360
348
339
342
341
342
264
648
367
333
333
339
347
357
374
392
403
405
386
349
334
333
334
337
339
344
340
356
366
349
342
344
343
342
269
647
365
331
337
339
344
359
371
387
393
399
375
344
326
324
320
325
328
332
339
358
361
343
339
340
341
331
405
556
339
330
333
339
350
363
380
397
403
395
362
336
328
328
330
333
335
349
364
350
338
339
337
340
271
625
397
331
329
333
341
353
370
388
398
402
383
350
333
330
332
335
336
344
361
357
341
337
337
337
316
437
506
328
320
320
327
336
348
366
381
385
374
337
313
305
305
306
306
313
329
330
313
304
307
309
304
326
541
307
292
299
307
315
327
352
367
371
367
343
304
298
314
300
314
331
346
340
327
324
325
326
288
520
438
346
329
350
363
338
356
391
409
437
423
393
367
366
359
359
376
384
392
362
365
365
365
341
497
606
353
348
361
357
361
377
395
412
412
407
367
332
341
337
332
356
373
363
344
335
344
355
315
469
577
340
326
328
351
351
370
396
413
409
381
352
316
317
314
313
338
352
343
320
316
311
310
219
648
371
295
287
290
300
311
339
343
358
342
329
288
285
280
287
300
327
330
320
310
296
294
277
336
578
290
288
296
308
324
337
358
381
410
387
353
315
328
332
361
396
401
386
382
372
373
362
400
651
338
351
350
359
373
397
411
424
422
399
359
334
329
335
340
367
367
350
348
347
350
323
506
573
335
332
327
339
348
366
390
400
405
386
351
327
330
327
330
343
348
345
333
329
329
332
238
654
338
309
304
308
314
323
339
359
368
365
331
300
292
291
292
295
302
315
319
309
306
309
307
284
426
508
305
296
301
308
320
339
361
377
385
370
339
320
321
323
328
332
347
365
352
346
346
346
343
331
650
335
328
330
333
347
361
380
399
408
398
364
339
332
332
333
346
365
356
342
339
341
337
255
654
351
328
325
329
340
352
368
388
401
400
368
342
337
341
341
346
358
376
370
355
354
355
354
279
653
362
341
338
341
351
360
378
395
405
401
367
342
332
329
336
335
332
333
352
356
343
336
328
330
278
551
396
315
309
307
313
320
333
353
367
359
365
317
305
303
303
304
315
326
352
334
320
311
314
323
276
631
332
314
316
321
323
351
367
387
396
397
369
339
332
337
335
337
345
362
377
361
351
355
357
331
523
465
360
359
366
365
374
392
409
413
428
406
381
355
347
343
357
346
347
363
371
358
339
343
335
335
335
575
328
318
316
324
330
340
357
367
380
374
351
324
315
318
320
321
330
350
360
341
337
339
336
333
395
551
335
333
334
338
352
365
383
393
407
394
367
339
334
332
335
333
334
344
361
360
343
333
337
336
269
616
378
324
321
326
329
342
354
374
386
388
375
341
324
322
323
327
327
332
336
351
365
349
335
342
338
324
419
541
337
330
334
339
353
363
382
398
406
399
368
345
336
340
340
340
340
341
342
355
367
355
343
343
346
336
381
587
337
334
335
347
353
377
392
412
428
423
399
365
364
361
363
367
374
377
401
412
381
377
369
366
343
442
578
347
340
342
344
350
358
383
390
396
383
351
316
306
302
297
295
299
316
325
310
289
285
281
279
218
631
262
259
259
267
278
289
311
325
335
336
305
279
276
276
279
284
287
305
340
315
298
296
298
299
223
652
300
292
293
300
308
332
351
368
382
379
354
328
324
327
332
337
339
356
389
376
357
355
354
359
275
655
391
352
355
350
364
378
392
414
424
428
402
367
355
355
356
359
359
358
379
393
376
365
358
357
356
303
654
345
338
335
340
350
362
378
395
403
397
369
339
327
328
327
334
331
331
342
367
356
336
329
332
331
250
653
359
320
314
319
327
339
355
374
385
388
366
331
313
312
310
316
317
318
321
332
355
345
327
328
332
332
247
654
350
324
320
330
341
352
368
388
405
403
381
349
335
334
339
340
345
343
348
351
355
377
365
351
347
348
346
265
653
354
330
327
330
340
350
368
387
397
402
378
345
328
324
327
329
331
335
336
344
364
360
342
339
338
338
271
633
392
331
326
329
337
351
363
383
397
401
384
350
328
328
325
331
333
337
335
336
346
364
349
336
339
336
337
256
652
343
322
318
321
332
344
364
384
395
394
372
340
329
327
324
334
339
346
347
356
380
373
353
351
348
350
273
653
385
346
340
347
358
370
386
404
416
415
393
357
343
340
336
338
338
338
345
362
369
349
337
337
337
332
351
638
330
322
323
332
343
358
377
395
403
396
367
344
338
338
339
341
342
343
346
350
370
363
346
340
339
339
272
614
395
324
316
317
324
336
350
365
376
379
360
326
307
302
301
303
302
302
304
309
324
328
310
305
305
305
292
370
506
300
291
296
305
312
325
345
361
369
362
333
309
304
306
308
312
316
317
321
326
340
352
337
332
331
333
329
331
601
337
326
330
337
347
360
378
396
406
403
376
352
341
341
345
348
351
350
354
357
371
385
375
362
361
367
367
291
652
376
355
359
363
366
378
398
424
438
436
407
375
365
367
367
371
377
381
389
399
416
389
376
369
379
366
339
652
355
350
350
352
362
371
389
405
409
400
378
341
327
330
325
325
320
337
356
347
319
320
314
311
263
551
426
301
294
295
304
310
327
349
357
367
346
312
290
287
286
286
289
294
314
320
297
287
286
285
284
233
644
287
271
277
283
292
309
327
349
360
360
329
304
298
303
307
310
318
328
355
349
334
331
336
338
295
560
475
335
331
335
344
357
372
390
407
411
397
363
344
345
347
350
353
358
361
369
390
389
372
367
368
368
341
498
570
357
349
352
358
367
380
399
412
419
408
374
349
341
344
341
341
341
340
340
343
360
363
342
338
340
336
311
454
497
328
315
319
329
339
347
369
379
392
383
351
325
318
322
323
326
331
332
336
342
361
367
343
343
342
341
314
477
517
337
328
334
341
352
369
383
400
412
400
372
346
336
336
338
344
349
355
377
376
350
350
347
342
332
399
619
336
324
329
332
349
360
378
398
401
394
362
334
330
331
335
337
341
351
375
369
342
342
341
345
303
545
515
335
333
339
342
355
369
391
405
410
400
364
343
339
343
344
346
345
360
387
370
352
350
352
351
307
571
524
342
335
339
346
356
371
390
401
409
391
355
331
322
322
321
321
320
325
349
341
315
304
298
295
290
291
633
283
267
267
272
279
293
313
329
337
331
302
274
266
267
270
275
279
282
286
298
318
322
303
302
302
298
291
364
592
302
295
300
308
320
338
359
377
391
384
354
326
322
323
326
330
337
339
342
346
347
350
355
382
370
355
352
356
352
265
654
372
343
341
350
354
368
385
402
414
420
399
366
344
337
340
341
345
345
348
347
351
351
364
381
361
349
348
347
346
280
654
349
329
331
337
347
357
375
394
407
404
382
347
333
334
334
335
338
345
343
349
344
349
355
382
368
354
351
349
350
274
652
408
337
335
337
346
358
373
393
403
408
393
357
335
329
330
331
332
333
338
337
342
341
354
372
350
343
341
340
340
258
653
344
324
321
327
336
346
363
379
392
394
371
335
320
320
319
321
325
327
330
334
334
338
336
349
366
347
341
340
337
337
258
653
351
327
325
330
340
348
367
386
398
400
384
345
325
325
325
325
329
334
335
339
341
341
349
369
360
348
345
345
344
272
648
396
335
332
335
341
353
366
387
399
404
390
355
333
330
331
335
336
341
342
343
345
351
367
367
352
347
347
349
320
481
516
336
329
331
335
345
357
375
390
396
388
356
327
321
320
322
323
326
328
329
332
344
357
339
332
330
330
332
254
649
342
319
316
323
331
341
357
377
386
389
363
331
315
314
316
316
320
322
328
344
352
334
327
327
330
330
254
647
345
323
319
327
336
347
363
382
392
394
373
341
326
329
327
331
335
343
360
370
351
345
342
345
350
285
649
352
338
335
343
351
362
382
399
410
411
388
354
343
345
342
347
352
375
375
359
357
355
354
357
280
653
378
350
346
351
361
372
394
408
421
427
399
369
353
347
350
354
364
392
383
359
350
350
351
348
363
651
344
337
339
344
358
373
395
407
412
405
384
354
335
341
353
358
388
387
358
346
350
343
344
299
654
332
325
323
327
333
349
366
377
387
381
349
316
306
306
306
316
340
329
304
291
290
289
289
250
648
276
265
260
263
269
282
301
316
325
323
297
267
265
263
267
271
289
308
298
282
279
281
288
233
570
377
287
281
287
298
312
332
356
373
379
368
332
317
319
321
326
329
334
343
370
356
343
342
346
347
276
652
410
337
337
342
347
362
380
399
411
416
403
365
344
344
346
347
350
351
355
369
389
368
357
356
356
355
271
654
366
342
341
345
354
367
383
403
414
416
393
356
346
342
340
344
348
350
352
359
379
370
353
355
352
350
282
643
411
339
334
335
341
353
368
386
401
405
390
354
334
332
332
335
337
337
340
343
365
366
347
343
344
345
322
452
539
339
331
334
338
345
358
376
394
398
392
358
332
326
326
324
327
325
327
327
338
351
335
323
321
317
316
237
648
320
298
295
298
305
316
332
350
361
362
339
309
294
297
297
298
303
305
308
316
335
335
318
316
319
319
286
492
437
317
312
316
325
334
348
368
383
393
382
350
328
322
324
328
330
333
335
336
345
361
362
347
344
348
348
306
552
449
345
338
341
351
358
372
391
405
411
403
366
343
339
339
341
345
347
348
352
356
371
379
360
356
356
356
347
387
594
353
343
345
351
360
372
391
407
415
413
384
353
344
342
342
345
347
345
347
354
369
375
354
351
350
350
335
417
546
344
334
336
343
350
364
382
398
403
398
368
342
332
332
333
336
337
340
342
349
365
362
348
343
341
343
299
550
432
338
330
331
340
350
366
384
397
404
394
362
339
333
333
335
337
339
343
344
359
372
353
345
345
346
347
273
651
361
338
335
341
348
358
375
392
403
405
384
351
334
332
333
333
334
335
336
345
362
351
337
333
334
333
272
576
382
318
314
315
321
328
343
359
371
371
358
323
301
296
295
297
298
298
306
317
323
305
300
299
300
297
277
576
303
290
292
297
307
320
338
354
362
363
336
308
301
300
305
308
312
320
339
345
330
326
329
330
330
324
604
340
331
334
340
351
364
381
400
408
406
378
351
343
342
343
345
354
370
381
364
356
355
357
357
301
650
368
354
354
357
367
380
397
413
424
421
396
365
351
349
352
355
370
383
376
354
354
352
355
311
560
434
346
341
344
348
360
371
389
405
403
395
356
337
330
331
332
342
363
366
337
328
332
331
326
355
598
324
317
318
324
334
350
367
384
390
386
353
330
317
317
318
329
351
352
329
320
318
319
312
299
634
318
300
303
308
319
334
353
368
378
375
344
317
308
313
312
317
336
352
337
325
322
326
323
261
621
377
316
310
319
327
336
355
376
388
397
378
345
328
327
331
332
337
348
370
366
350
341
345
345
322
478
514
343
335
337
347
356
371
390
405
413
400
369
349
343
345
347
351
354
357
357
364
381
369
357
355
358
357
275
654
372
343
340
346
351
362
377
393
404
407
386
355
334
332
333
336
338
337
338
340
341
354
365
345
336
335
335
321
391
539
324
314
316
320
331
339
355
368
375
373
341
312
302
301
304
304
305
307
309
313
323
336
324
316
316
319
315
245
628
329
312
314
317
327
341
357
375
390
394
373
345
325
325
326
329
334
335
339
347
368
369
349
347
348
351
318
520
476
348
342
346
354
362
378
394
408
413
403
375
346
341
339
342
343
344
348
369
377
358
349
345
346
342
276
652
348
329
329
331
342
353
373
385
396
397
367
336
322
323
321
322
326
327
334
353
341
324
320
318
315
270
534
390
301
294
301
303
312
325
341
353
358
343
311
288
283
284
285
288
289
291
308
321
307
296
294
295
298
221
636
317
292
293
298
310
320
338
358
370
375
353
324
314
315
318
321
327
332
335
346
367
362
349
348
349
351
309
551
463
349
344
347
353
363
378
397
411
420
409
379
355
353
352
352
356
359
363
365
368
375
391
381
370
369
371
370
300
653
398
361
357
363
370
379
394
412
426
430
411
379
358
351
354
354
357
358
360
360
366
385
376
358
358
358
358
313
565
430
348
343
345
354
363
375
396
407
412
404
369
344
341
341
340
339
349
348
348
369
376
361
350
346
350
348
274
651
359
330
329
331
338
349
358
375
384
383
361
324
307
301
300
297
300
300
301
318
324
305
288
288
287
286
209
601
306
273
270
277
283
293
309
325
338
343
328
295
283
283
284
288
293
296
305
323
335
319
312
313
318
319
251
643
351
322
324
329
337
349
369
386
400
405
387
357
342
341
344
347
350
353
359
369
386
378
364
363
367
366
334
530
493
366
359
363
369
378
392
409
425
431
424
393
370
364
368
370
372
376
377
382
386
401
397
380
376
380
375
351
497
520
363
354
360
356
367
378
393
408
411
407
377
344
337
336
335
334
339
339
338
345
365
357
341
337
339
337
303
504
452
333
326
329
335
347
360
378
392
399
391
358
335
325
325
326
329
331
335
343
362
362
339
337
334
337
326
352
609
334
323
323
330
339
350
367
384
394
386
360
330
321
318
321
322
324
327
335
356
353
336
328
328
329
322
317
628
326
316
315
320
331
344
360
378
389
387
356
329
320
322
323
327
330
332
336
339
346
366
363
346
345
343
346
318
485
510
340
332
334
339
349
362
380
396
402
398
368
340
334
333
334
337
340
341
342
343
342
345
359
367
348
339
341
338
336
309
632
333
317
317
323
330
338
353
370
380
380
360
329
313
310
312
313
316
315
319
320
323
324
332
351
346
332
331
333
330
276
561
398
326
323
325
334
345
359
373
390
395
388
360
338
328
330
334
334
334
338
339
345
347
357
371
357
347
349
346
349
275
643
367
339
337
339
346
359
372
390
400
403
387
354
330
332
329
333
338
340
342
346
350
374
371
351
348
346
348
332
426
544
340
331
331
339
347
356
374
387
395
392
360
329
316
312
313
313
315
315
314
322
338
334
313
310
308
307
290
391
502
302
295
295
301
313
325
343
358
368
365
337
310
305
305
309
314
316
321
325
332
352
354
337
332
335
336
333
311
639
338
327
329
336
345
355
372
391
401
405
379
350
339
337
343
343
347
352
352
359
378
383
368
362
363
358
363
287
653
376
351
348
354
363
371
384
407
416
426
407
367
351
344
343
346
353
351
352
355
379
381
359
355
354
351
349
288
651
350
335
334
337
345
355
371
388
396
400
377
339
320
321
318
318
321
322
327
349
349
322
317
316
315
308
268
640
310
295
293
299
308
320
336
357
367
367
345
311
302
298
305
308
311
316
325
351
345
326
323
327
326
320
346
615
328
319
319
325
336
347
369
384
394
394
367
337
327
327
328
329
335
339
341
356
369
354
345
344
346
345
272
646
395
337
331
337
345
356
371
389
404
410
396
363
345
340
345
344
345
349
348
355
370
372
351
346
347
344
343
277
650
345
327
324
329
334
342
356
372
382
385
362
329
316
311
314
314
318
319
319
321
333
349
336
327
329
329
327
265
611
369
323
318
327
335
346
360
384
397
407
394
361
340
339
336
341
342
343
351
370
385
367
355
356
354
356
296
631
426
348
340
346
352
368
383
404
417
423
407
381
357
351
351
346
353
359
382
387
368
352
350
350
348
269
653
384
332
328
332
338
349
361
384
394
399
383
348
331
326
325
326
330
344
365
356
334
332
330
329
316
397
589
322
310
316
322
329
346
363
381
387
384
353
324
317
314
320
322
325
341
359
345
334
329
328
332
299
496
502
327
319
320
329
341
352
373
388
393
386
354
327
322
321
326
329
330
332
337
352
360
347
340
336
336
336
259
653
350
325
325
331
337
350
366
384
392
400
381
347
332
326
327
331
333
336
340
343
346
365
367
349
343
342
342
333
386
600
339
328
334
339
351
360
378
394
405
401
375
344
332
332
337
338
340
341
345
347
352
370
369
353
349
348
346
334
407
576
343
333
334
339
347
358
374
389
398
395
365
332
322
323
319
321
324
325
323
324
323
323
334
345
322
314
310
308
306
274
597
300
282
280
283
288
297
309
321
330
330
306
272
255
254
253
255
254
257
259
264
268
266
275
296
286
279
278
282
284
219
575
331
286
288
296
305
318
335
357
374
384
377
346
326
324
330
335
340
346
349
354
359
362
366
370
372
383
403
389
383
381
384
384
331
653
392
375
376
381
388
399
412
431
443
445
429
394
372
370
372
370
371
375
376
378
381
381
381
396
413
390
385
378
381
378
342
651
380
360
366
370
375
386
397
416
427
430
410
373
353
352
348
351
355
359
356
362
375
386
369
354
356
352
351
273
653
365
340
340
347
351
365
380
401
411
415
398
363
346
339
340
338
342
345
357
385
378
355
346
346
346
338
351
648
340
333
334
341
349
363
385
400
411
405
380
343
333
334
328
332
333
342
368
363
341
328
329
326
326
293
653
316
310
312
318
327
343
362
374
386
387
361
332
328
325
323
327
332
349
371
356
336
336
333
334
288
582
483
328
322
324
329
345
364
386
400
409
398
364
346
341
346
346
348
356
378
380
356
346
344
344
343
268
654
345
331
326
330
339
352
369
388
400
402
380
344
331
329
330
332
336
338
352
377
364
343
338
340
340
305
505
525
328
320
322
330
336
347
365
378
385
374
340
308
295
292
290
289
288
285
291
309
301
275
267
263
263
244
313
498
241
229
229
233
246
253
270
288
297
296
267
236
231
232
235
238
247
248
258
276
289
268
267
270
277
281
208
646
302
285
286
297
307
324
346
367
383
391
375
344
329
331
337
340
347
352
366
387
384
367
367
367
367
342
521
588
362
359
363
370
382
395
412
427
434
430
399
372
366
369
368
371
378
397
398
378
370
368
369
367
290
655
370
357
354
356
366
376
393
408
420
421
397
363
352
353
357
357
357
366
386
389
367
361
360
362
360
284
655
364
350
349
354
360
373
389
407
415
419
396
363
344
342
342
345
344
349
356
378
367
350
348
348
348
327
453
525
343
335
339
346
351
370
386
397
405
403
373
344
335
332
333
334
338
336
338
340
354
365
342
333
330
331
325
311
610
322
307
303
307
315
325
340
353
360
361
339
307
287
286
283
288
289
293
291
304
320
314
295
295
297
295
269
434
442
296
291
295
304
314
327
346
363
369
370
342
313
311
312
317
321
325
331
334
344
365
359
342
342
347
348
305
542
463
344
340
344
353
360
375
391
405
412
403
375
343
338
333
336
333
334
334
335
338
355
347
325
321
319
316
292
428
462
303
291
294
296
303
315
329
345
348
344
315
285
277
278
283
285
288
292
295
301
317
331
315
308
310
312
314
240
647
336
315
318
326
338
349
366
384
398
405
392
362
341
343
347
349
356
355
361
364
382
395
381
368
369
374
372
303
652
403
371
367
373
381
394
412
426
439
441
425
392
374
366
361
365
368
366
370
389
397
378
364
361
361
359
281
653
388
345
343
346
353
363
376
396
404
407
393
364
341
338
335
337
338
347
372
366
340
339
337
335
336
315
646
332
322
324
329
340
352
371
384
393
393
366
340
328
331
331
334
341
362
372
354
339
336
337
334
272
629
392
327
321
328
333
343
358
379
391
394
383
348
329
327
330
335
334
343
365
369
353
342
343
345
344
266
653
365
336
335
341
349
359
376
393
404
407
389
355
341
337
339
340
341
347
348
359
380
365
351
349
351
352
302
573
444
342
338
341
347
356
368
387
402
406
400
370
341
338
341
343
346
345
349
349
352
364
378
358
351
352
350
351
275
652
363
339
339
341
350
357
374
391
401
405
390
358
338
335
336
338
341
342
343
345
359
370
355
348
343
344
346
275
641
382
337
335
341
346
354
369
385
400
404
391
358
339
333
336
337
339
342
345
353
370
369
349
347
346
347
342
330
617
343
332
331
334
341
350
362
375
382
378
353
320
306
300
299
298
297
295
293
297
312
302
283
279
275
274
252
373
415
258
249
251
256
263
276
290
310
316
315
288
260
255
253
257
265
272
271
288
305
303
293
294
299
300
297
345
528
316
314
316
327
337
353
373
390
404
404
381
351
345
347
350
356
362
368
391
398
379
370
370
374
376
307
653
426
371
367
371
380
386
404
419
433
437
422
389
367
365
362
363
366
368
384
395
381
364
362
362
361
329
524
513
351
344
347
353
363
375
393
404
412
403
374
348
340
343
343
347
351
353
362
382
373
357
353
354
356
344
406
595
350
342
344
351
359
371
385
401
409
410
382
352
343
346
344
346
346
348
349
351
355
370
381
362
356
354
353
353
288
651
360
342
338
346
353
363
376
394
406
411
392
359
342
339
340
343
343
346
348
350
350
354
356
374
377
358
355
356
355
342
420
548
353
344
342
352
357
370
388
401
409
410
385
358
341
341
341
343
344
350
350
355
357
378
373
355
354
355
353
332
470
522
353
344
346
351
362
374
390
406
411
407
379
350
340
338
340
343
345
346
349
364
377
358
348
345
344
345
273
642
394
334
328
334
340
349
363
385
396
402
390
357
333
329
330
334
334
336
339
347
368
366
350
344
345
344
344
294
651
346
332
329
338
346
356
371
390
403
405
383
351
335
332
334
337
339
342
346
349
361
376
362
352
351
352
351
295
604
428
347
341
344
351
361
373
394
406
414
402
373
346
341
342
344
347
350
349
351
349
358
371
379
363
358
352
357
352
286
651
363
343
344
349
353
369
378
398
412
412
401
363
343
337
341
346
349
351
353
363
379
389
370
357
360
361
361
283
653
379
350
346
350
357
366
382
397
411
408
399
363
343
340
340
339
345
345
353
375
374
351
343
342
342
343
259
653
354
326
326
329
340
349
366
384
398
401
380
348
332
330
332
332
333
337
341
354
370
354
342
339
343
343
306
512
486
336
328
332
339
346
359
376
394
403
396
366
339
332
332
334
334
339
340
342
345
354
372
357
348
347
347
348
289
610
419
341
336
342
347
357
369
387
402
408
400
372
343
338
337
340
344
343
344
347
350
349
350
353
366
382
361
355
350
351
352
316
647
350
336
336
339
348
359
373
392
401
404
384
354
334
330
330
332
337
336
338
339
341
340
345
363
365
342
342
344
344
331
403
548
338
331
334
338
347
361
375
394
403
403
380
350
333
334
335
338
343
345
349
350
363
383
364
356
354
355
354
305
589
430
351
345
351
358
365
379
398
410
417
410
374
350
340
340
340
342
346
347
350
365
378
358
347
345
345
343
280
634
399
337
333
336
342
352
366
383
396
403
388
356
334
328
330
329
333
337
338
344
360
369
351
344
343
341
345
271
648
383
335
331
339
343
355
367
385
400
405
393
362
339
334
337
337
339
343
344
345
347
353
371
373
354
352
350
350
349
321
646
348
338
341
346
353
366
379
397
408
408
387
354
341
340
341
343
345
349
353
355
355
357
357
369
386
370
360
358
357
359
292
651
393
352
349
352
359
368
382
396
410
416
407
375
351
344
345
345
347
347
349
351
352
353
353
358
374
375
360
354
355
354
341
418
554
348
338
341
347
351
363
380
395
404
405
384
347
335
337
334
338
338
342
343
346
347
348
354
374
369
355
353
352
352
319
510
465
354
344
347
353
364
374
393
410
415
413
388
359
343
342
345
346
346
350
355
353
362
384
374
355
351
352
353
335
436
566
346
338
338
346
352
366
382
398
406
403
377
347
334
335
331
336
338
339
342
352
371
361
343
340
339
338
327
400
585
335
326
329
333
343
356
372
388
398
397
370
340
327
326
330
334
338
338
341
346
368
364
346
344
344
345
346
302
651
348
337
336
343
351
360
375
392
404
406
383
351
335
335
335
334
337
337
336
335
342
359
354
335
329
327
324
322
298
613
318
303
302
303
308
316
331
343
351
353
330
296
278
276
273
274
274
275
278
279
280
281
295
301
286
281
280
281
282
213
605
296
278
279
284
293
304
322
341
355
365
354
323
305
304
307
311
313
318
323
329
333
335
345
362
365
351
349
351
352
352
320
645
361
352
353
359
368
378
394
414
423
427
414
381
358
355
358
359
361
364
368
367
365
373
383
396
376
368
368
370
369
301
652
383
362
361
367
370
386
397
414
426
431
420
388
367
357
360
359
361
364
363
363
376
389
376
358
360
356
354
313
545
469
344
336
340
343
353
367
380
396
401
397
367
338
326
325
320
326
327
328
332
347
359
342
333
331
331
331
286
536
423
325
318
318
327
335
348
367
381
390
384
356
328
320
322
323
326
327
330
331
334
347
359
345
336
336
336
335
277
590
388
327
321
325
331
339
352
367
382
387
382
351
321
313
314
317
317
317
317
320
321
328
346
340
326
325
326
323
315
377
537
324
318
320
325
334
346
364
382
390
391
370
340
328
327
328
332
335
338
339
341
346
359
371
357
350
350
351
350
285
643
383
345
345
347
358
364
382
397
415
420
411
380
353
345
346
346
350
350
354
357
365
386
376
361
358
358
359
350
419
566
357
351
352
357
367
379
397
416
420
419
398
365
354
350
350
353
351
353
362
381
382
356
348
348
346
346
273
653
353
334
330
334
342
353
369
387
395
398
384
349
327
325
327
328
332
333
340
362
360
337
333
333
338
337
257
652
348
328
327
335
340
352
365
384
396
399
386
351
331
330
328
334
336
338
341
354
371
358
345
346
346
348
319
494
501
343
337
338
346
355
367
384
399
406
402
376
345
338
336
340
341
343
346
364
373
356
346
344
346
348
298
564
444
337
335
335
343
352
367
382
399
404
396
363
337
332
331
333
336
340
358
369
352
341
340
341
340
312
488
476
336
332
334
340
349
362
380
395
404
398
368
341
332
332
335
338
341
352
370
365
355
349
351
355
352
309
647
354
342
342
349
355
363
378
396
407
407
387
354
337
336
338
339
343
342
344
349
363
371
352
347
348
349
348
274
650
366
340
338
342
349
357
368
385
397
403
391
359
339
335
333
337
339
341
345
342
346
361
372
353
348
345
346
344
276
639
373
337
336
343
346
355
369
387
398
403
395
360
338
332
334
334
339
336
344
342
347
364
372
351
343
345
346
348
273
650
360
334
336
337
345
356
370
386
402
406
392
362
336
329
329
331
337
337
343
364
367
346
339
336
334
334
256
652
357
324
321
325
332
346
361
379
389
394
381
346
323
317
320
321
325
326
337
356
355
334
329
328
329
327
258
650
336
319
319
324
331
344
360
380
392
394
378
345
329
327
329
329
331
333
337
344
361
362
344
338
338
339
340
276
652
348
333
333
340
343
354
367
384
397
400
383
349
330
325
326
324
327
326
327
329
336
350
335
322
317
315
312
273
472
409
298
288
291
294
300
313
325
340
347
344
314
284
273
274
274
279
281
282
287
304
314
299
292
290
292
295
239
538
347
293
292
300
306
317
332
352
368
376
369
343
318
313
315
319
323
329
332
344
362
354
343
341
345
347
337
397
555
349
342
346
352
362
376
391
410
419
421
394
363
351
351
351
354
357
359
373
387
374
363
362
362
363
348
445
538
359
353
357
362
370
382
398
415
421
419
393
365
354
353
355
357
359
364
381
382
364
357
357
359
357
291
651
366
351
346
352
358
367
382
398
413
414
395
363
343
338
343
343
348
365
377
359
348
345
347
350
320
501
467
348
341
346
351
354
375
388
402
406
404
374
347
341
339
336
339
351
371
363
340
337
332
335
335
278
646
330
321
319
327
335
343
360
372
379
384
364
332
314
313
314
318
334
352
342
324
318
317
317
312
316
622
318
305
308
313
323
337
354
369
377
376
353
322
313
311
314
318
328
351
347
325
320
321
322
323
249
652
329
313
311
316
323
335
349
365
375
376
358
324
310
308
313
313
316
318
329
346
333
321
320
321
322
299
446
478
320
314
317
323
334
346
363
380
389
387
359
331
323
323
327
331
334
336
339
343
360
359
344
342
344
343
337
357
591
338
327
326
329
337
349
364
379
389
390
368
336
320
318
318
320
319
322
325
325
331
349
343
330
326
325
327
304
450
459
322
317
319
328
335
351
369
383
393
392
367
335
327
327
328
332
340
342
343
347
362
371
354
347
348
348
351
282
649
361
343
346
350
360
367
387
404
415
421
403
375
352
348
350
351
354
357
357
369
389
375
363
357
359
357
339
448
551
353
344
344
349
359
369
385
399
405
405
379
349
337
335
339
338
339
345
352
371
366
344
342
341
341
336
335
624
338
330
331
336
344
357
373
388
398
398
376
344
331
329
331
334
336
337
341
358
369
350
344
341
344
344
276
632
384
336
333
335
342
352
367
382
395
402
391
359
337
334
334
336
337
340
343
346
360
372
356
347
346
347
347
287
611
393
339
336
341
346
355
368
384
399
403
397
368
342
335
337
339
339
340
345
346
351
362
368
350
347
345
345
347
279
649
354
335
333
340
345
352
370
385
400
399
389
356
337
334
333
332
338
336
337
340
346
362
361
345
346
340
348
337
365
582
349
332
338
343
353
363
380
400
404
408
385
354
338
336
334
341
341
344
358
377
368
348
341
340
341
335
346
623
336
321
324
324
330
342
356
370
381
380
356
326
313
319
313
314
316
323
341
334
316
317
315
317
317
301
621
320
312
313
316
326
342
358
375
381
386
363
334
321
319
321
321
330
339
360
350
333
330
330
332
327
340
610
329
321
319
327
335
347
364
381
390
390
366
337
326
327
329
332
334
342
359
370
356
343
343
344
343
276
649
371
340
332
340
348
356
371
389
404
409
398
360
342
338
339
339
343
347
365
374
358
349
347
345
347
292
569
427
334
332
334
343
353
369
382
394
395
389
359
337
326
329
327
329
336
360
364
344
331
328
329
329
248
647
370
317
312
319
325
335
350
367
382
385
374
338
318
314
317
315
324
346
357
338
330
324
328
331
272
602
409
322
320
325
332
344
359
380
393
400
388
355
333
326
332
331
335
339
356
367
351
343
342
341
343
284
617
421
334
332
333
338
347
365
382
397
403
393
359
333
330
333
333
332
335
336
347
362
354
344
342
343
341
316
493
492
337
329
334
340
350
360
378
395
403
399
373
345
338
338
337
340
343
343
348
363
373
357
348
347
350
349
279
646
382
337
337
341
347
358
370
386
403
406
396
367
341
337
336
334
342
339
343
347
345
347
351
363
376
362
353
355
353
352
308
645
352
337
340
341
349
364
374
392
403
404
394
359
334
330
330
329
334
336
337
356
368
348
337
331
336
334
269
632
384
324
324
327
331
345
358
375
392
394
380
353
327
326
326
328
328
333
345
365
359
334
333
334
338
317
443
547
324
321
320
327
338
352
368
388
396
388
360
330
322
320
325
326
331
343
368
351
336
329
334
332
314
442
532
328
318
321
325
335
349
366
383
389
381
351
322
312
311
316
315
319
325
347
343
322
317
315
318
314
277
641
317
302
303
308
317
328
346
360
373
375
352
320
307
308
308
311
314
317
325
344
349
329
326
326
326
328
244
652
346
322
324
326
335
349
362
383
397
400
383
351
335
331
336
336
340
344
346
351
363
376
359
353
353
352
353
273
653
385
344
341
346
352
362
378
396
408
414
401
368
346
340
342
344
346
346
354
355
371
364
350
348
350
353
340
376
600
346
336
337
344
349
361
376
393
398
394
365
334
323
321
318
321
322
322
322
333
343
326
319
311
311
311
258
552
361
301
296
297
304
312
328
344
353
366
354
329
301
295
297
296
306
304
309
326
336
317
315
308
310
318
246
596
358
317
307
313
325
335
356
369
387
390
385
351
333
325
326
327
333
337
365
363
346
343
343
346
342
263
650
371
336
341
336
354
362
377
393
407
408
394
362
346
346
345
348
349
368
383
370
354
345
351
353
325
475
535
340
335
337
344
353
362
382
397
407
396
368
340
328
337
333
340
358
369
354
340
338
337
343
311
520
493
340
329
335
340
344
354
382
387
397
388
352
321
318
320
317
327
344
342
317
314
312
308
307
249
643
305
293
289
294
304
314
332
342
356
355
330
298
285
285
288
295
306
326
314
303
299
301
304
291
405
503
303
300
302
315
320
339
358
380
384
379
351
325
322
323
328
333
336
349
364
355
349
348
346
353
301
600
444
344
341
346
354
364
382
398
412
419
407
375
351
339
343
347
356
375
368
352
349
349
351
348
350
633
347
342
345
351
361
368
388
404
415
412
384
354
345
343
347
349
350
358
375
374
354
355
351
353
344
392
566
345
337
339
341
351
359
375
389
399
398
372
340
330
327
329
330
332
333
336
337
358
353
339
335
332
337
302
492
430
323
315
320
323
336
342
360
374
386
378
355
324
316
313
316
315
316
323
319
338
351
331
327
327
326
328
259
642
337
321
320
322
331
347
361
377
392
397
384
351
327
328
326
330
333
333
338
352
363
346
337
336
334
333
257
649
342
324
321
326
336
345
358
375
389
391
377
343
325
322
325
327
329
331
332
337
358
353
340
336
337
339
309
476
471
334
326
330
337
347
358
375
392
397
398
371
340
330
327
333
335
338
339
342
344
349
367
364
353
348
351
351
319
497
476
346
340
342
349
358
371
387
402
408
406
380
352
339
339
339
344
344
346
348
349
351
353
368
378
360
357
354
353
346
380
573
350
343
342
349
355
366
381
398
405
405
385
355
339
336
336
340
339
340
337
339
345
355
357
336
330
331
322
305
388
475
307
294
291
294
296
302
317
326
329
325
296
262
243
235
234
229
228
228
229
225
233
244
230
217
210
213
213
138
498
241
207
205
210
221
237
250
270
285
294
285
263
242
242
246
253
260
270
277
281
302
318
309
305
310
316
321
247
648
353
332
334
343
352
365
381
406
422
426
416
385
369
366
372
374
380
384
386
392
403
420
404
397
396
397
398
322
654
419
388
385
390
396
407
420
437
448
452
439
404
382
380
378
379
381
383
384
385
391
408
397
386
383
384
381
338
576
467
371
367
371
375
382
394
410
422
428
422
392
364
352
354
354
354
358
358
355
361
362
379
367
357
354
357
354
291
624
381
345
345
347
353
365
379
397
404
414
404
375
345
338
338
339
343
343
346
345
364
373
353
345
341
342
341
268
647
347
330
326
330
341
346
365
377
390
391
382
354
327
320
323
324
326
335
333
355
363
347
334
331
334
333
249
652
356
323
320
325
334
341
356
376
387
391
378
341
321
316
326
322
317
329
335
354
336
321
327
327
320
283
517
431
313
315
313
322
340
352
374
395
385
390
360
335
326
323
330
336
324
353
365
352
342
336
339
338
315
474
491
335
334
334
339
349
362
377
395
400
396
368
339
325
327
324
326
329
343
354
338
321
316
316
306
273
447
406
290
292
288
290
301
310
325
341
344
343
316
288
283
283
287
286
287
303
314
319
299
295
290
295
294
228
603
315
293
295
302
306
328
340
363
376
381
368
344
326
323
329
330
338
337
347
363
379
367
356
353
359
356
314
586
442
360
358
364
372
387
397
413
429
432
429
403
375
368
368
366
371
370
380
400
392
367
363
362
363
356
331
651
356
348
345
351
361
373
385
404
409
410
388
355
343
338
341
340
345
348
369
373
348
344
339
338
340
257
653
357
332
329
334
339
349
366
384
390
395
381
352
329
323
324
330
330
333
333
343
364
354
338
336
339
341
317
459
515
337
329
334
339
349
362
377
391
399
396
370
344
333
333
335
339
339
341
342
349
368
366
350
344
344
345
345
316
644
344
335
335
341
349
360
375
390
403
403
385
354
335
335
335
337
337
340
341
343
346
361
366
350
344
345
344
344
276
650
352
334
335
336
345
356
370
387
397
400
388
355
333
330
329
331
332
334
337
336
340
340
343
353
358
347
344
342
341
341
285
645
348
332
333
336
344
353
366
384
395
397
386
353
332
327
332
333
333
335
339
339
341
343
346
349
364
362
350
349
349
348
309
538
432
341
334
339
345
351
363
378
392
401
402
377
345
333
332
333
335
336
338
340
344
343
349
366
357
346
344
347
348
306
531
428
341
335
337
344
354
368
384
397
403
399
372
342
331
330
333
336
337
339
340
344
360
364
344
341
341
341
342
277
650
352
328
333
342
343
359
369
382
397
400
391
350
339
335
331
334
338
338
339
344
356
362
346
338
333
337
342
283
632
354
328
325
329
345
364
357
375
387
388
380
355
312
310
319
311
317
305
322
340
317
316
302
302
305
266
434
432
284
277
280
288
291
300
327
332
341
331
307
279
263
274
267
279
275
295
293
290
290
269
268
276
233
477
364
285
262
273
301
276
312
333
334
347
339
307
303
292
294
301
312
299
328
348
333
326
335
326
336
329
387
560
336
336
334
343
360
368
389
403
415
415
388
369
361
363
366
373
375
380
390
407
398
390
389
391
391
364
519
537
382
375
377
380
386
399
418
427
434
429
395
369
361
360
358
362
361
367
372
383
388
373
366
360
366
368
291
652
374
354
354
356
366
376
391
407
419
421
406
371
352
349
347
352
350
349
358
377
380
360
351
352
354
353
277
652
378
339
336
340
346
355
370
387
400
402
388
355
331
328
327
328
329
328
339
359
348
334
330
328
328
323
345
592
323
313
316
322
326
339
359
373
386
382
357
329
316
319
319
317
320
322
333
351
341
328
328
328
329
312
413
526
326
319
321
327
340
350
370
386
396
392
367
340
330
328
332
333
337
343
361
365
346
339
340
340
345
266
651
365
338
335
339
347
357
372
387
398
404
388
361
343
338
340
340
345
343
347
362
372
352
348
347
345
344
272
645
367
338
335
337
346
358
370
387
399
403
387
355
337
330
334
335
338
340
348
366
361
344
340
340
341
333
378
559
340
334
336
342
349
360
373
390
400
398
373
343
333
334
336
338
343
357
363
347
339
340
340
340
276
622
364
335
331
336
340
351
367
384
397
400
388
350
336
330
332
336
336
338
348
361
365
347
346
343
345
348
280
640
354
337
339
341
352
365
377
395
407
407
393
361
342
338
338
345
347
348
349
349
346
355
379
364
353
350
350
349
281
647
383
338
338
340
350
358
376
387
403
405
400
366
340
335
334
335
339
338
343
364
366
350
340
341
339
338
260
651
354
329
327
331
339
350
365
383
395
399
384
352
331
328
329
330
334
334
337
345
344
360
369
349
345
344
344
342
299
643
346
332
335
341
349
360
377
395
407
411
391
357
339
335
338
341
341
344
346
347
349
367
367
351
345
346
345
340
352
591
341
334
334
340
347
357
373
389
400
400
376
344
332
329
330
332
334
333
335
335
339
352
356
339
333
332
330
329
289
611
328
316
315
320
326
336
352
369
377
382
361
326
308
305
307
307
309
311
314
313
314
315
331
342
325
319
323
321
319
263
612
334
312
316
322
329
346
356
375
391
393
381
351
328
325
328
328
337
333
336
339
349
372
352
346
345
341
348
294
570
418
341
335
344
351
362
371
394
401
407
402
370
348
338
339
341
340
347
349
358
378
372
348
349
350
347
332
415
572
339
334
335
339
350
362
380
396
400
401
373
343
326
324
325
327
331
336
354
358
341
333
328
329
326
266
597
379
320
311
313
321
332
346
363
375
382
374
338
314
307
308
310
313
317
320
343
361
320
319
320
318
322
240
649
341
312
311
317
329
332
355
369
382
391
374
340
324
321
328
327
328
328
345
364
355
344
343
344
343
340
423
570
354
341
342
352
360
372
393
408
417
409
390
361
338
353
338
346
349
358
375
368
352
344
348
346
336
383
575
338
333
332
338
345
356
372
387
392
394
363
328
324
298
301
302
306
322
323
299
289
285
281
282
202
576
301
258
247
251
254
264
279
290
303
307
295
258
236
242
234
241
244
269
279
269
261
260
264
267
218
512
359
271
272
277
290
307
324
341
359
369
358
334
311
308
309
318
325
335
363
353
339
345
347
349
348
387
624
355
349
354
359
374
384
408
427
429
427
402
371
357
357
362
364
366
383
393
377
362
359
358
358
303
600
445
348
340
344
347
352
368
381
391
398
383
347
320
313
312
307
309
308
324
330
308
298
295
291
289
221
572
328
275
268
272
278
287
302
318
334
340
329
299
278
276
278
284
288
295
314
319
305
301
305
308
310
238
635
340
312
315
321
332
344
364
382
395
404
389
360
343
346
345
352
349
358
359
365
373
390
378
375
371
376
373
313
638
456
371
363
366
380
383
401
416
430
436
430
400
375
366
364
366
370
374
370
376
391
404
383
375
371
364
369
278
654
375
359
352
357
366
374
391
413
424
431
416
379
363
352
352
361
362
365
380
392
369
362
357
356
353
279
654
405
346
338
343
347
357
373
391
402
405
396
360
340
333
335
334
337
341
357
370
351
338
332
333
333
271
603
414
328
319
322
328
342
354
374
385
395
385
353
329
321
322
323
327
330
338
359
356
334
333
331
333
329
315
643
328
318
316
322
331
342
358
377
383
387
361
327
312
310
310
313
315
318
322
336
346
325
316
317
315
313
229
648
332
298
296
298
304
311
325
343
354
358
345
310
287
283
283
284
286
284
287
289
303
309
293
286
286
286
288
208
626
305
283
281
288
296
305
324
342
358
365
354
323
307
303
307
310
315
319
322
334
354
346
334
336
340
342
324
451
507
346
344
345
352
365
378
396
412
419
421
395
364
355
352
353
354
357
356
360
371
381
362
355
354
356
354
279
643
368
346
335
334
344
352
364
380
394
400
384
349
325
318
319
318
320
324
339
352
320
312
309
311
311
251
568
362
297
288
293
299
310
315
334
343
353
347
317
299
287
291
292
289
293
327
318
292
286
284
288
297
265
651
294
291
293
306
304
336
348
370
387
389
360
330
313
321
317
319
339
349
364
340
329
335
337
332
200
656
381
326
326
318
331
341
352
368
390
385
384
335
327
331
330
330
334
345
363
339
327
321
323
325
235
641
415
311
298
298
306
311
334
341
360
361
360
315
302
301
299
304
306
319
329
326
316
316
323
327
256
584
421
318
317
322
327
348
359
380
397
401
396
364
342
342
347
346
356
368
374
363
362
357
363
364
282
655
378
356
352
352
359
366
382
398
400
396
378
336
313
305
306
306
322
324
306
297
289
287
286
208
579
325
261
253
263
266
273
285
305
320
320
313
278
261
259
261
268
287
293
296
291
284
290
303
272
435
481
301
298
304
312
325
345
359
380
390
386
356
334
325
331
335
345
360
365
352
346
345
349
345
342
649
344
335
335
345
345
362
376
395
402
400
375
341
335
335
339
342
359
364
355
348
343
347
347
262
654
374
336
339
338
347
359
374
394
403
407
388
357
339
340
344
349
358
373
374
363
354
358
353
359
284
654
362
344
342
348
358
369
387
404
414
415
389
358
343
342
347
349
356
367
375
362
352
349
351
351
265
654
373
341
337
340
347
363
380
391
405
419
389
356
341
339
342
344
352
370
372
352
345
345
346
312
508
518
342
331
337
342
350
365
386
398
408
402
359
342
333
335
333
338
356
362
342
325
322
319
315
231
652
314
286
282
285
290
300
312
325
331
328
299
266
249
249
245
248
254
274
273
252
241
240
239
233
301
484
244
232
232
241
251
266
282
296
309
309
278
253
247
251
258
259
271
295
302
291
287
286
294
294
283
603
298
300
297
312
308
325
343
396
389
353
358
323
320
320
321
325
337
333
347
369
381
366
366
375
375
320
652
516
382
378
389
392
406
423
441
457
458
446
413
390
385
381
384
383
383
387
388
384
383
385
399
410
383
378
377
373
313
648
485
362
356
355
364
369
387
403
413
423
412
383
354
342
340
340
337
342
341
343
344
358
370
349
344
338
341
327
396
603
333
325
326
335
342
353
369
386
390
389
359
327
312
308
307
304
301
299
294
299
316
296
279
274
273
265
170
625
267
238
231
236
240
249
261
276
284
286
268
235
220
220
223
228
232
237
241
257
277
266
259
262
269
272
204
610
293
279
285
297
308
324
343
364
382
385
371
341
330
331
335
342
346
352
363
386
374
361
365
366
369
297
653
401
366
361
366
374
386
400
419
430
441
425
395
372
371
372
377
381
387
409
408
387
381
380
385
363
481
586
376
370
373
375
387
403
417
433
439
433
403
377
363
361
367
366
376
396
391
369
363
362
359
331
499
534
349
343
341
347
354
367
383
396
399
392
360
331
324
319
322
324
340
352
338
324
320
321
323
245
642
355
314
309
313
321
333
349
366
379
382
364
333
314
316
314
317
322
338
340
320
313
311
312
306
311
579
309
298
298
305
315
328
347
363
372
366
341
312
304
308
311
312
316
325
345
342
326
326
326
327
286
552
403
326
325
323
339
349
365
385
399
407
400
368
348
341
344
350
360
360
375
393
382
367
357
377
369
286
655
397
366
359
366
373
386
400
417
426
425
408
365
343
335
334
335
338
355
361
341
331
330
330
330
257
655
329
319
319
324
331
346
362
380
389
388
365
335
326
327
332
333
340
362
364
345
340
338
336
332
334
649
330
324
321
330
337
354
371
388
394
395
364
336
327
328
328
329
333
347
362
351
338
337
335
338
257
653
363
330
326
330
336
349
365
381
392
395
381
343
324
324
327
330
332
333
336
338
348
363
346
337
336
338
338
285
649
341
325
327
332
341
352
366
386
397
399
379
346
330
330
331
331
334
337
340
339
346
358
366
349
346
344
343
320
456
516
341
334
334
341
352
365
384
396
401
396
369
341
331
331
331
336
337
337
338
348
364
353
343
340
338
337
259
640
363
321
315
317
320
327
339
352
362
364
347
310
288
282
277
275
275
275
273
275
286
293
273
266
262
261
256
253
532
258
244
247
252
261
276
293
310
323
323
298
271
261
264
269
274
279
283
288
297
314
326
312
312
316
321
314
372
549
333
329
331
341
355
369
385
407
427
417
392
366
356
360
361
365
370
367
371
387
409
385
370
379
374
376
293
653
388
363
380
368
387
404
412
434
430
441
418
386
379
371
367
375
382
386
395
412
385
375
383
373
381
285
654
391
352
341
359
359
364
383
381
396
382
361
326
308
319
322
326
309
317
304
315
295
288
284
306
161
551
350
281
231
261
271
273
276
320
336
305
322
283
219
266
292
249
296
272
323
327
293
293
311
292
257
498
433
306
300
294
328
363
356
358
399
399
375
360
348
394
308
355
368
346
372
385
394
377
348
392
375
342
649
393
379
358
359
355
403
411
434
450
413
434
355
352
364
349
404
404
378
386
400
379
398
417
351
319
474
568
365
368
343
358
370
378
406
414
415
422
369
350
358
358
354
342
360
363
367
381
349
348
352
358
340
406
572
350
340
343
348
357
370
389
406
413
406
375
346
343
341
345
347
347
354
370
371
354
348
346
349
344
381
590
343
350
335
353
358
377
398
407
422
427
380
364
353
350
356
362
370
398
419
376
370
372
371
373
334
652
369
369
372
379
386
397
428
432
463
462
444
402
397
409
425
436
444
494
472
436
423
414
416
392
564
649
403
392
392
408
403
419
439
448
455
436
400
364
362
350
338
336
345
354
346
319
316
314
312
232
639
356
284
275
273
278
288
300
314
327
335
314
277
257
255
254
256
263
285
293
264
252
246
251
252
173
646
252
241
237
242
252
262
281
297
308
301
274
243
235
235
234
239
246
268
273
248
241
239
239
237
194
605
242
227
227
236
246
267
279
295
310
309
279
260
252
257
262
266
270
280
303
304
292
292
291
296
285
346
557
300
289
297
305
319
333
354
367
377
376
345
321
320
324
326
326
333
350
355
339
335
337
341
341
340
644
354
345
347
355
365
380
401
417
428
420
388
367
365
366
367
370
379
396
390
374
371
370
371
332
535
551
362
357
359
367
376
390
408
420
424
410
378
359
359
361
362
364
365
372
386
384
369
369
369
370
349
460
603
362
354
357
363
371
384
402
413
422
410
376
354
349
351
351
351
352
355
356
362
375
370
357
356
356
356
309
539
504
346
340
341
347
357
371
388
402
405
394
361
341
337
339
339
340
343
344
346
347
346
361
366
348
345
344
345
327
392
585
333
319
320
320
326
335
347
356
359
349
312
281
269
268
261
259
255
254
256
255
256
269
262
244
241
240
240
179
473
339
235
232
236
245
257
275
298
316
325
316
284
270
271
276
283
287
298
306
312
318
327
347
347
333
338
346
348
284
601
459
348
345
349
361
373
393
410
423
432
417
385
364
363
368
369
372
375
377
379
384
396
405
386
382
383
382
381
324
651
380
365
363
366
373
385
401
418
429
428
396
366
356
356
357
359
359
360
363
364
368
376
388
370
363
360
360
358
262
652
373
345
343
345
354
366
384
402
411
414
389
357
344
344
344
345
346
348
350
351
358
376
365
355
352
353
352
270
651
394
343
337
339
348
357
371
390
401
405
388
355
335
330
331
334
332
334
331
333
336
356
347
333
333
331
329
263
585
378
317
312
306
316
318
334
350
365
366
357
323
298
289
294
296
295
299
303
311
328
336
310
311
306
316
298
354
538
311
301
309
315
327
344
362
381
382
388
362
331
323
325
333
334
340
354
385
383
359
359
365
364
339
521
578
366
363
362
371
386
395
414
432
440
430
405
370
368
366
365
370
375
398
402
374
366
365
365
360
289
653
345
344
341
345
349
361
372
390
397
393
367
332
316
316
317
314
323
348
347
327
316
310
314
314
220
652
320
301
294
298
308
321
337
354
363
365
343
315
295
295
298
306
306
315
335
345
324
312
316
317
319
245
652
321
310
306
317
327
341
358
379
391
394
366
336
325
324
327
327
338
337
344
363
371
352
340
341
344
338
274
651
341
325
322
322
334
340
355
368
378
373
346
307
289
280
277
274
274
270
265
264
275
286
261
247
248
242
244
163
610
240
221
221
225
233
243
268
286
299
303
280
252
238
241
247
255
260
268
277
283
294
322
319
306
306
314
317
277
536
460
331
328
336
347
360
379
399
416
428
422
392
367
360
362
366
369
372
372
378
386
407
395
383
379
375
378
314
648
481
368
360
368
373
383
398
418
430
435
424
385
364
357
356
359
361
363
369
371
394
391
371
369
370
372
348
470
605
362
354
358
364
372
385
404
418
424
419
388
357
351
352
349
354
355
365
385
384
363
359
358
359
353
315
652
352
346
342
345
354
366
382
401
406
407
384
349
336
340
338
341
344
352
373
367
349
345
345
345
323
457
550
336
330
331
337
344
356
371
384
388
377
338
312
306
304
301
301
302
315
317
296
282
274
272
271
178
633
282
247
241
241
246
257
273
290
301
304
285
250
237
238
241
246
250
254
262
281
291
275
274
276
280
282
227
645
293
288
292
304
317
333
353
374
390
395
375
347
336
343
348
352
355
360
368
376
400
393
384
380
383
385
337
612
501
383
378
385
390
404
417
440
452
457
451
417
392
382
385
385
387
386
387
388
403
413
394
384
382
381
385
306
651
387
370
364
369
377
386
404
419
425
430
409
373
353
352
352
353
357
353
357
353
362
376
359
347
345
347
349
264
650
360
332
328
332
338
348
365
381
393
394
379
349
332
330
330
335
338
338
339
345
365
364
344
339
339
337
329
358
604
334
325
329
334
343
353
371
385
395
394
365
335
326
326
328
330
333
337
344
366
355
340
340
338
340
313
468
461
336
330
330
343
350
361
379
394
400
390
365
334
326
327
330
329
331
337
333
355
365
338
335
336
334
332
300
615
337
326
328
332
343
356
373
390
400
400
377
343
330
327
328
329
334
337
353
365
350
338
336
338
340
260
650
386
330
326
331
338
348
366
386
397
401
384
352
335
332
335
338
339
343
358
374
357
348
345
347
348
280
642
417
340
338
342
350
360
377
396
410
413
400
364
342
339
341
344
343
343
351
370
372
352
348
346
348
342
335
618
343
334
334
336
344
354
371
386
392
388
358
327
316
313
312
313
313
313
312
319
333
320
307
303
301
298
243
529
357
289
279
284
289
296
309
327
340
347
335
301
279
279
276
282
284
287
291
293
310
322
311
301
304
300
305
248
580
347
303
302
306
319
332
346
367
384
389
375
340
319
318
318
323
326
332
338
354
369
353
346
342
346
350
278
640
396
340
338
340
352
362
380
397
410
415
399
364
345
343
339
348
350
352
367
384
380
357
358
357
356
350
386
640
350
343
344
348
359
376
395
412
418
414
382
352
343
341
342
347
348
352
362
383
370
356
352
353
356
317
517
508
343
339
341
348
359
370
391
410
411
400
368
340
335
337
342
342
344
350
348
356
377
368
355
351
350
350
311
545
481
343
342
342
347
358
374
391
405
413
406
372
342
336
338
339
342
343
345
351
368
370
348
343
346
346
345
286
649
346
334
334
337
345
354
372
391
399
400
371
337
327
321
320
323
322
321
321
335
345
332
318
317
315
309
258
534
374
300
292
293
297
315
321
337
353
362
351
318
292
284
286
288
290
298
300
309
336
334
315
312
313
316
318
281
643
329
315
319
329
337
353
370
391
403
403
376
341
329
330
330
334
335
344
368
374
353
347
345
349
349
260
651
385
341
338
344
354
363
382
404
414
416
400
363
344
342
344
346
350
351
359
385
381
362
357
358
358
355
339
649
354
345
348
351
365
374
394
412
424
421
393
359
352
351
347
351
351
360
377
381
360
353
353
354
355
272
651
370
344
340
344
351
363
378
394
406
409
386
354
338
335
335
335
341
337
340
354
362
350
339
338
336
338
260
643
370
325
322
327
335
343
359
378
388
390
373
343
322
317
322
323
322
322
324
333
355
344
333
330
330
331
303
470
455
328
325
324
336
345
356
372
391
404
390
365
341
330
331
333
338
342
352
366
361
349
345
348
348
336
425
532
348
339
345
350
368
379
395
416
424
416
386
355
346
348
346
352
353
374
384
370
352
346
345
345
303
534
458
332
326
327
330
337
353
369
379
384
371
334
313
305
305
306
310
313
331
340
325
313
314
315
315
252
593
367
314
311
312
321
335
350
368
383
388
374
343
327
321
325
329
333
332
341
355
367
353
344
345
346
349
276
649
384
342
340
345
352
363
380
401
412
420
403
371
351
349
350
352
353
355
360
365
382
381
364
367
363
364
350
441
556
357
354
351
359
367
378
396
413
415
411
381
352
343
344
345
347
344
354
356
372
378
357
354
356
353
356
317
645
361
348
348
353
366
374
394
410
423
418
398
361
346
343
344
349
350
353
370
377
359
348
342
345
341
271
644
378
330
326
327
332
346
358
375
384
389
370
332
312
304
309
309
313
320
342
342
325
316
315
317
316
237
650
327
309
308
310
323
336
352
371
378
382
360
327
314
316
316
320
320
325
335
356
343
332
331
334
334
308
479
485
334
327
329
337
348
363
383
398
406
399
367
345
339
341
344
349
351
355
360
374
383
361
359
359
359
359
310
649
360
349
348
354
361
374
391
406
417
416
391
364
348
350
347
351
353
354
359
380
380
357
354
356
353
347
347
622
346
329
343
333
348
349
375
384
390
386
359
325
315
313
310
309
306
319
342
331
306
304
301
304
285
361
548
303
281
290
290
306
321
340
355
355
359
322
302
297
295
289
295
308
340
334
306
306
303
312
307
329
641
309
306
310
312
326
343
362
378
391
391
361
335
332
325
328
336
344
372
363
342
337
339
337
326
398
640
321
315
316
322
331
342
362
374
381
371
338
313
306
306
308
312
318
334
346
