331
334
344
353
361
385
397
412
413
393
361
342
332
332
339
347
353
365
378
358
357
355
359
360
359
368
477
384
363
367
366
375
389
406
422
428
431
406
369
343
342
336
337
345
354
361
344
338
336
338
340
337
299
574
344
340
340
342
349
360
371
389
408
405
401
364
331
324
320
321
324
332
342
348
335
327
333
330
332
332
285
594
355
339
341
348
357
369
385
405
424
426
413
383
359
348
337
349
348
354
358
371
363
351
351
354
356
357
333
525
359
361
354
359
360
371
379
390
414
413
408
377
338
320
317
312
317
313
327
328
337
323
316
318
316
321
314
334
413
343
325
328
330
336
347
364
381
386
392
366
336
312
313
308
316
318
319
329
343
333
331
326
329
331
337
291
582
347
343
344
348
356
362
379
395
408
416
407
370
339
318
320
321
320
328
339
339
328
323
323
322
330
329
321
473
350
337
339
348
359
366
384
403
409
408
388
351
325
319
320
320
321
335
344
325
321
317
323
329
322
286
572
335
329
325
330
335
349
355
377
390
399
388
354
321
316
313
318
326
320
328
339
335
323
324
323
324
325
277
573
331
325
315
328
331
343
344
372
381
389
380
343
315
306
308
306
309
323
329
333
320
315
316
322
327
332
366
425
365
351
353
361
371
383
405
426
434
433
408
368
353
340
340
342
353
365
349
336
340
340
344
345
341
446
386
363
348
352
354
361
377
387
410
415
415
390
353
329
326
331
330
344
349
346
331
324
330
328
331
315
455
355
348
333
335
339
347
358
375
393
393
397
371
331
320
308
313
319
330
338
326
319
323
322
322
325
283
541
351
327
331
333
341
348
362
382
393
395
380
343
323
315
315
324
331
332
318
313
315
317
317
324
293
536
356
329
333
340
345
353
369
389
401
403
387
353
335
328
325
328
337
346
336
328
336
338
337
342
301
565
343
341
340
343
351
359
368
390
399
405
401
362
340
321
317
322
331
341
327
318
318
320
321
321
312
440
338
344
327
337
349
346
360
380
392
401
402
376
330
321
316
328
343
348
329
329
332
334
334
336
297
582
365
338
340
349
348
353
372
390
397
399
385
347
321
315
317
327
342
328
319
318
319
322
327
324
274
582
352
333
334
344
352
352
372
389
403
413
391
358
334
326
322
337
355
346
331
333
336
330
333
336
291
586
356
333
331
341
345
353
369
384
396
402
385
351
333
316
316
323
326
346
330
321
321
317
328
328
310
480
331
341
335
340
341
351
362
386
395
403
401
365
339
322
323
322
332
347
336
326
327
329
333
334
333
301
532
361
339
340
345
352
369
379
399
412
410
387
350
326
321
325
323
335
352
340
331
332
332
330
332
338
302
539
366
337
338
343
352
360
374
396
409
404
386
351
325
321
312
312
320
327
333
340
324
321
324
324
329
327
351
403
345
324
333
334
350
360
371
395
394
394
369
335
316
310
310
317
318
333
341
323
319
318
325
324
326
295
549
333
336
330
336
345
351
364
383
396
400
390
361
331
321
315
322
323
333
339
338
321
321
325
327
332
332
317
480
356
338
342
342
351
363
379
400
415
412
388
343
331
321
320
327
325
327
338
342
335
322
332
323
331
333
283
589
348
336
338
342
351
360
370
385
407
408
387
356
323
311
310
307
317
319
325
330
358
305
304
317
320
321
325
372
405
354
342
345
343
355
369
385
397
409
408
384
351
321
315
313
316
324
331
333
336
335
325
323
324
333
342
339
422
353
333
346
337
370
361
379
396
408
407
381
342
316
324
317
318
328
331
368
325
313
325
334
318
331
284
595
358
338
347
349
352
358
384
393
411
411
403
363
340
331
329
331
330
342
353
348
336
326
336
334
334
335
320
500
370
334
338
349
348
359
377
397
408
407
386
344
327
317
317
325
321
327
327
335
340
326
327
337
331
333
304
526
345
339
335
336
345
354
367
378
399
405
397
364
329
309
306
314
310
314
326
333
332
318
327
316
323
315
318
365
395
353
332
344
340
349
361
374
395
400
407
379
341
318
315
312
315
320
323
333
346
329
324
323
331
329
335
287
583
366
342
340
342
352
361
374
393
405
414
404
370
335
323
325
326
328
332
330
332
336
351
340
335
343
333
342
338
313
502
350
352
344
345
352
358
372
386
407
415
406
384
347
327
320
316
324
327
332
348
340
336
334
328
336
333
339
292
584
362
342
344
343
356
362
375
395
414
411
406
377
332
325
315
328
324
323
329
335
351
333
330
326
327
331
328
289
570
374
340
336
336
353
362
376
399
402
410
400
349
328
318
315
313
322
316
328
341
330
321
314
326
320
331
291
536
338
336
330
338
346
350
371
388
403
403
406
372
335
323
317
326
326
339
350
351
337
331
338
336
337
340
328
477
365
337
346
358
354
368
384
407
416
416
395
354
332
322
326
319
330
337
351
340
334
335
329
335
334
340
329
489
367
345
349
357
367
372
392
414
423
425
403
368
344
334
336
334
341
342
356
354
342
340
342
345
346
347
327
498
371
345
350
355
365
372
385
407
415
423
398
353
337
325
320
313
324
325
335
347
318
323
324
326
334
329
311
492
362
329
339
341
351
364
378
397
415
410
389
354
323
323
316
317
327
335
349
339
328
334
329
336
328
337
289
570
363
329
333
342
347
360
372
391
401
416
383
359
326
316
313
315
319
326
331
331
311
320
315
313
319
315
331
393
343
323
324
327
334
345
359
376
384
382
362
320
306
295
298
296
308
319
339
310
302
336
300
308
315
291
498
342
335
324
327
338
351
364
390
389
404
404
368
341
326
319
321
331
330
334
350
348
342
337
345
347
345
298
597
364
352
346
360
359
380
373
400
420
426
410
380
344
331
325
332
333
344
356
346
341
339
347
346
339
349
300
577
380
347
354
356
362
380
392
407
423
420
405
366
342
333
324
331
340
347
354
339
333
341
339
338
336
331
325
481
365
339
344
350
360
364
383
401
406
415
389
361
330
330
329
323
331
333
343
337
328
331
331
332
337
310
518
338
338
339
340
356
362
369
390
405
409
413
378
334
326
321
322
323
336
346
337
325
328
329
325
330
316
484
345
351
331
343
345
362
373
391
409
409
413
381
342
330
320
328
345
336
343
333
343
326
329
337
328
299
543
353
347
339
347
358
363
376
393
412
412
412
377
339
326
319
320
333
336
349
330
337
325
332
334
338
282
581
355
346
336
334
346
355
370
389
406
406
394
368
333
322
315
330
334
350
341
326
328
330
326
332
336
275
591
369
337
335
347
352
361
375
388
412
406
383
374
324
321
324
321
336
341
345
332
326
333
331
334
337
316
490
356
357
341
341
354
349
372
393
401
412
414
378
348
333
321
328
330
342
347
348
329
333
331
335
342
315
446
365
357
341
351
348
361
382
387
419
416
406
379
353
321
322
320
328
338
353
335
332
331
337
344
342
325
460
376
358
348
352
348
361
368
390
402
412
404
380
342
325
321
325
335
336
351
325
328
332
323
325
331
311
521
338
339
340
340
343
353
375
393
405
415
406
364
340
326
308
323
325
342
336
325
326
321
333
327
325
317
451
362
334
337
333
349
352
378
406
404
397
383
342
319
315
319
326
332
340
336
319
322
325
325
331
320
338
425
353
329
334
338
345
356
379
406
403
407
383
347
327
314
319
323
334
343
329
318
321
329
330
325
292
547
336
337
332
342
348
362
377
391
412
416
412
370
343
322
321
327
336
351
345
330
332
346
332
339
336
300
567
374
346
347
347
352
366
382
398
422
415
398
357
329
324
329
328
339
351
338
326
333
331
326
338
334
327
459
359
337
343
348
353
363
377
397
412
405
392
347
328
321
320
321
333
335
330
327
329
329
322
331
317
452
341
356
334
345
351
355
370
391
401
414
409
382
342
322
322
329
331
340
353
346
332
329
331
331
342
307
538
362
347
342
356
357
364
376
396
406
418
406
376
350
321
330
331
333
336
345
325
326
336
327
333
334
280
574
335
336
327
336
342
349
373
382
399
403
397
367
331
321
320
322
332
343
343
329
322
328
330
326
337
300
505
363
333
338
347
353
359
373
392
409
404
385
350
322
317
329
324
340
349
332
324
327
328
335
325
306
515
340
336
338
341
343
356
365
390
400
410
400
372
336
321
322
315
330
338
345
332
324
317
328
327
327
281
588
351
337
339
345
357
361
389
393
412
415
410
369
337
327
333
334
349
361
342
339
331
335
334
336
333
332
447
360
332
344
342
354
365
374
391
406
411
379
344
327
320
325
335
336
342
339
326
326
322
330
329
326
347
415
354
331
344
336
348
357
377
391
401
404
382
344
323
315
322
323
329
341
346
329
325
332
331
338
342
295
557
369
347
342
351
357
377
379
406
418
412
401
361
337
323
329
332
341
351
344
328
335
332
337
332
342
292
539
365
333
340
349
360
356
382
394
405
408
389
357
330
330
324
330
340
347
356
340
336
338
335
336
337
308
520
347
339
333
342
343
356
368
391
406
418
406
375
346
326
324
321
331
334
348
342
326
331
330
323
335
320
434
347
339
340
338
349
353
372
390
405
412
411
378
340
321
321
324
319
337
346
353
336
330
334
335
337
332
298
566
344
342
342
347
354
363
372
390
408
412
407
367
337
328
322
322
321
322
337
341
334
323
319
327
325
324
299
466
334
324
320
320
323
330
339
362
377
378
380
351
315
305
302
299
302
305
316
326
314
313
305
317
311
313
287
509
316
333
322
333
336
348
357
378
394
406
405
374
341
326
327
320
331
346
343
362
343
340
342
344
347
345
328
501
360
362
352
366
360
375
378
401
416
422
417
390
355
343
331
334
339
343
346
355
363
350
337
350
340
332
340
288
594
359
347
347
347
360
369
368
395
409
418
405
371
333
325
319
315
327
322
327
338
337
325
327
330
330
327
337
283
572
343
338
339
345
350
359
373
392
404
415
403
374
337
327
327
326
331
337
350
354
336
331
335
335
335
339
293
593
372
355
332
352
357
372
384
395
414
417
405
369
336
332
328
333
326
337
348
337
332
329
332
334
333
334
358
398
356
334
341
347
354
365
385
400
416
414
391
346
335
323
327
329
343
362
339
335
336
339
340
338
339
371
422
360
355
345
353
357
368
388
404
410
413
389
355
336
323
332
325
337
346
348
334
331
337
330
340
333
286
594
358
347
343
341
353
364
373
393
406
413
400
371
336
325
320
326
327
346
342
328
323
323
332
328
329
293
543
360
334
337
354
351
374
386
400
409
417
395
360
336
329
324
334
345
357
340
338
334
333
337
342
308
525
352
347
340
348
357
356
373
391
406
410
408
384
343
329
325
325
327
341
347
327
327
329
326
338
329
291
579
348
340
343
342
352
361
369
392
406
413
409
371
338
324
326
324
333
331
352
337
332
328
334
333
340
290
578
356
347
341
350
360
367
380
396
410
417
408
372
338
326
324
325
335
352
344
330
328
328
328
329
329
311
505
351
338
333
341
346
358
360
382
398
406
402
368
332
321
314
319
322
334
343
331
322
323
322
326
331
315
459
343
343
333
338
342
351
361
389
397
405
412
373
335
318
321
313
328
327
345
329
321
328
322
332
335
292
558
339
334
337
349
352
368
380
403
412
418
416
372
342
326
329
328
336
357
345
328
338
330
334
332
339
286
585
367
337
344
345
358
365
381
400
418
408
402
358
334
322
321
325
334
339
343
332
319
319
327
324
328
279
569
357
327
330
338
338
352
361
382
396
395
378
344
311
304
300
312
306
311
331
314
305
311
311
310
308
313
269
506
336
313
316
322
335
343
354
374
392
392
375
339
318
307
307
313
327
338
328
320
323
326
327
329
325
399
375
353
337
348
350
357
376
390
411
418
416
386
356
337
330
335
338
352
356
353
340
343
342
347
342
345
415
394
368
349
354
360
369
383
384
410
429
422
395
357
345
333
331
328
347
352
339
336
337
334
341
343
311
514
342
339
344
344
354
366
387
394
399
415
408
382
352
333
325
332
338
357
337
331
334
338
335
339
347
314
510
376
351
341
356
357
375
385
403
408
414
400
358
337
328
325
334
339
348
355
328
332
346
332
340
315
478
365
336
337
340
340
358
369
386
395
408
402
376
333
322
322
310
327
338
336
325
315
322
325
328
330
280
559
338
332
341
343
340
360
364
385
399
404
399
375
330
317
317
329
339
348
341
329
330
328
344
340
325
429
368
353
342
348
356
362
367
391
412
412
413
382
351
327
326
332
330
336
354
343
333
337
340
340
343
331
390
394
362
344
346
353
360
371
393
402
419
411
393
354
339
332
327
335
340
345
351
330
337
328
336
332
337
290
570
360
337
337
347
352
365
370
391
415
411
403
352
333
324
313
316
326
337
326
317
319
321
321
328
320
293
499
349
325
324
337
350
359
375
393
410
405
391
345
329
323
320
323
341
348
346
327
336
336
337
333
334
377
401
353
342
342
347
355
366
384
400
413
406
382
348
325
324
327
330
330
360
337
336
334
335
343
348
323
470
359
351
343
349
362
362
377
392
406
414
408
373
358
331
328
321
326
336
343
334
328
328
332
331
331
321
409
356
347
331
333
336
354
360
385
396
403
400
372
337
324
313
317
326
334
345
330
329
325
324
335
329
296
515
365
336
343
343
362
370
382
404
419
411
388
360
330
324
321
331
338
348
330
333
332
336
333
331
337
367
411
363
345
338
348
361
365
387
393
413
411
386
352
322
328
331
323
335
349
333
332
331
335
337
336
322
469
362
357
341
345
348
357
368
387
398
401
404
379
341
323
325
314
336
342
335
324
321
322
327
324
323
284
573
353
334
324
341
348
352
375
389
401
415
399
362
339
323
327
327
347
348
334
336
332
334
334
341
319
475
363
339
341
350
361
371
385
406
410
414
394
349
331
320
324
340
348
341
333
333
338
337
336
330
298
518
366
335
339
349
352
366
376
401
404
401
390
352
330
321
327
329
340
349
331
330
330
331
326
336
289
543
340
336
331
339
341
359
368
392
397
405
403
365
341
319
320
324
325
343
329
322
321
323
329
334
328
350
403
347
334
333
340
356
361
386
397
399
402
384
338
318
316
328
337
348
335
331
321
337
328
329
298
511
360
344
335
350
351
358
372
389
408
411
400
363
335
318
326
323
337
342
318
329
324
327
326
324
327
454
367
358
332
337
342
351
359
382
397
429
380
365
326
312
302
310
313
326
307
314
317
322
307
319
313
289
440
340
321
308
326
344
337
354
389
392
389
354
326
309
296
298
316
335
318
308
313
320
311
321
315
367
384
346
319
334
324
341
356
373
393
401
397
374
329
323
319
319
331
342
318
319
326
323
327
333
325
396
382
358
333
337
339
342
357
370
391
393
394
367
337
315
308
315
325
334
312
306
310
312
316
320
298
495
332
318
321
325
339
336
363
378
398
400
397
367
330
320
310
325
334
338
341
319
336
327
342
333
329
383
376
366
334
346
347
353
371
380
405
408
413
387
355
336
332
334
329
346
352
338
332
342
340
347
341
317
509
339
349
349
351
351
362
376
398
400
415
410
388
344
334
319
322
337
355
318
311
327
320
319
324
334
308
484
373
328
339
349
356
364
387
402
413
406
395
355
339
342
327
340
349
345
333
335
344
338
337
344
361
412
366
354
348
345
354
372
384
401
416
403
386
361
326
328
340
333
339
335
324
333
334
337
335
330
391
400
353
345
338
349
362
383
395
409
430
421
393
355
336
327
325
328
365
338
342
341
338
340
344
313
490
350
355
344
356
346
359
377
383
404
409
396
374
331
319
318
318
337
342
332
318
317
319
325
317
261
530
328
300
304
297
305
318
328
343
368
370
353
322
292
281
272
281
280
295
281
280
277
284
282
293
235
511
319
286
307
305
316
330
348
379
373
386
374
341
311
311
313
323
342
333
318
327
332
323
337
339
344
424
354
341
343
347
358
362
382
405
407
403
383
350
349
331
338
341
360
351
343
341
337
340
335
329
409
358
350
339
340
361
347
366
384
403
405
404
388
349
338
326
338
345
348
341
322
326
331
325
340
325
453
352
355
354
357
366
370
384
396
415
423
419
390
354
347
335
337
354
364
338
342
337
336
338
335
304
498
374
343
351
348
358
379
392
408
422
417
390
353
343
342
343
351
351
340
333
327
331
331
338
333
341
423
362
343
350
360
362
380
399
417
410
418
390
345
327
326
323
336
351
336
330
335
339
345
354
299
600
377
357
354
361
372
380
402
417
425
429
405
374
346
341
344
354
364
353
344
346
351
344
348
337
461
363
356
347
349
357
367
379
391
409
417
401
377
347
332
327
334
340
348
336
325
329
334
329
331
295
566
348
339
345
342
352
354
367
384
403
400
393
363
330
326
323
321
332
341
334
321
325
326
330
330
308
491
330
346
335
339
342
357
370
386
406
417
411
381
350
336
331
336
350
357
341
338
339
337
343
345
316
532
342
350
343
349
354
364
374
390
403
409
395
364
336
323
319
325
323
336
337
327
324
327
322
319
320
276
513
338
320
324
334
337
349
365
380
389
395
378
336
316
308
308
308
320
332
325
315
318
316
321
322
321
295
485
360
329
339
347
358
367
384
401
404
412
388
356
336
330
330
331
339
353
345
334
336
338
337
341
322
463
351
348
342
345
350
362
374
390
413
413
410
385
348
335
338
338
338
340
346
355
335
331
334
333
338
334
287
565
361
336
343
343
352
365
379
399
409
416
399
360
335
325
323
326
336
349
351
329
334
336
334
340
344
310
532
375
353
355
357
364
372
394
412
418
421
399
358
339
331
331
330
338
348
354
338
334
335
340
337
336
293
586
360
335
346
351
350
363
376
399
402
416
400
363
340
331
326
327
328
332
327
336
348
340
336
344
334
343
338
288
587
346
336
336
344
351
359
376
395
409
410
395
365
333
319
316
317
328
328
346
330
320
326
336
333
329
317
478
346
341
336
339
340
356
376
387
405
410
405
369
335
326
316
321
322
339
347
334
327
328
330
331
330
302
524
346
340
336
343
349
363
373
388
410
414
405
370
342
327
326
323
324
323
331
335
337
332
329
323
337
333
281
574
353
333
340
337
348
360
375
391
406
413
397
358
329
320
312
315
320
339
342
337
328
330
332
332
332
307
513
344
340
339
346
351
366
375
395
415
421
405
371
347
327
323
325
327
341
351
335
330
331
332
336
330
287
577
361
337
343
352
352
367
378
408
414
421
398
370
348
333
330
333
337
341
349
329
327
324
338
336
336
291
585
353
341
340
348
344
361
371
394
409
412
405
362
335
312
314
317
324
341
334
320
318
323
324
332
327
337
441
366
337
344
354
361
373
391
417
420
416
391
354
336
326
326
326
342
360
335
330
330
333
334
338
302
551
353
347
329
340
346
356
364
389
403
411
397
351
319
309
303
301
301
312
305
298
291
297
287
293
282
234
502
306
276
277
285
287
289
314
324
336
337
313
279
252
248
240
247
252
266
261
250
253
261
262
260
222
482
291
275
277
290
304
306
324
352
366
368
368
339
317
300
301
318
330
328
308
319
316
315
333
332
276
575
359
342
350
357
359
376
390
412
426
424
416
382
353
345
350
362
373
363
346
345
350
347
359
342
481
366
367
354
370
370
382
402
425
432
436
434
406
360
347
352
359
375
361
350
360
355
362
362
352
411
403
379
367
361
369
382
387
407
423
433
426
400
361
349
340
344
358
362
348
338
345
350
348
348
311
545
358
355
351
355
361
377
379
406
416
422
409
379
345
329
334
336
352
337
332
324
330
335
330
337
292
578
357
336
338
352
357
365
382
402
411
416
399
369
330
329
328
338
352
346
332
334
330
338
339
340
327
451
371
339
347
353
365
373
392
404
422
411
394
348
336
324
326
332
351
339
332
333
335
339
328
338
294
503
358
336
331
345
351
363
373
397
402
409
378
336
326
310
315
320
329
316
301
311
304
316
309
313
325
387
326
304
321
324
330
341
365
380
387
385
359
320
311
301
313
322
328
317
303
314
314
314
326
286
556
341
338
332
342
350
359
372
397
402
410
407
360
338
329
329
331
354
339
333
327
333
332
334
335
325
467
361
332
341
346
352
359
379
404
403
411
385
350
329
330
327
337
348
337
336
334
336
338
344
324
421
368
349
337
344
346
361
366
384
409
411
411
376
336
328
327
330
334
353
332
326
331
326
338
336
337
362
415
360
343
344
352
364
379
390
421
418
419
390
349
334
321
331
339
346
331
328
328
333
326
331
280
587
350
333
334
335
342
347
360
386
387
397
377
330
312
301
305
308
317
326
302
300
308
314
312
309
307
452
345
322
327
328
339
345
375
383
397
406
370
331
318
311
308
322
333
323
312
322
321
332
325
333
299
527
365
333
338
342
346
353
372
389
397
406
373
346
324
322
315
321
331
347
314
328
321
328
332
337
321
432
352
339
334
349
354
367
378
406
408
411
380
353
338
331
332
345
358
354
340
340
338
347
347
338
345
458
374
350
358
362
363
370
399
413
414
419
388
350
331
334
331
335
351
341
336
337
339
339
342
338
381
397
361
347
349
345
355
368
381
404
406
403
378
342
328
325
320
331
348
337
333
332
336
331
342
322
444
358
353
341
352
360
359
375
398
410
417
413
383
348
343
339
342
351
363
354
342
341
344
343
346
286
588
367
343
340
352
356
358
369
395
407
401
378
346
312
301
314
311
325
328
312
308
308
310
308
311
259
552
337
315
314
326
328
339
352
384
392
394
376
344
325
309
311
310
320
327
323
311
319
317
327
324
320
426
349
353
338
340
346
360
364
397
406
417
415
380
346
335
334
322
341
352
345
336
331
336
336
342
338
311
485
372
334
347
352
364
370
387
405
415
413
389
348
330
328
325
325
336
350
337
330
332
337
335
338
319
455
360
355
344
345
358
360
381
392
404
415
406
377
350
335
321
326
329
339
344
350
331
336
336
342
343
346
289
574
370
338
346
354
359
369
380
400
420
423
400
370
341
331
332
330
338
336
354
342
335
336
343
338
342
294
570
360
342
348
349
352
367
379
404
413
415
411
376
341
331
329
337
352
342
361
343
336
327
327
318
337
287
564
363
329
317
337
339
353
365
383
397
397
370
342
309
298
316
281
293
320
309
291
290
284
282
274
262
400
284
282
272
271
272
282
290
315
323
329
324
285
249
231
230
236
238
255
254
244
237
246
243
249
253
199
496
294
262
273
281
289
309
325
349
361
371
364
319
304
297
297
307
316
327
323
317
318
326
331
330
329
412
375
362
345
357
366
369
388
405
425
431
434
404
374
354
349
352
360
369
382
369
365
366
371
369
371
316
626
398
379
380
387
396
398
418
424
448
446
432
394
365
356
360
361
367
375
364
354
361
354
354
353
350
376
424
375
350
356
357
371
384
393
411
420
415
389
346
336
325
331
335
343
344
325
327
327
329
332
339
287
559
359
334
337
342
354
370
379
400
411
420
397
353
337
333
331
335
350
353
331
335
333
339
340
345
299
587
356
348
354
356
365
374
394
401
411
414
409
371
345
332
328
330
344
353
339
333
332
331
332
339
332
397
390
359
343
350
353
356
367
388
406
413
414
379
353
335
328
326
332
354
332
325
326
322
333
333
335
340
419
359
326
348
351
355
368
390
402
425
409
390
359
329
333
336
347
365
342
332
341
339
339
346
343
371
415
367
342
350
356
358
377
386
414
412
416
392
354
332
335
334
343
347
341
328
335
330
328
333
330
331
439
357
340
342
350
347
367
387
404
413
408
398
352
336
319
320
331
353
342
330
325
330
335
331
346
281
595
371
342
350
345
362
359
382
403
408
410
403
363
338
326
326
335
334
353
330
329
327
333
330
341
300
543
362
350
341
347
355
365
372
395
407
411
405
368
337
319
318
316
324
339
331
323
327
328
323
325
329
285
527
357
337
335
338
356
368
379
404
409
409
390
356
334
318
334
339
360
341
325
324
334
327
326
311
351
394
334
310
320
316
326
331
334
354
357
355
309
280
251
248
241
243
252
249
222
225
222
220
217
224
193
369
247
226
228
236
237
259
271
298
313
316
296
262
249
246
254
264
272
284
273
281
277
289
291
300
279
476
314
322
320
331
334
354
370
388
406
417
414
388
350
344
338
346
346
366
367
354
355
367
363
365
364
323
602
394
371
378
381
385
403
421
419
447
448
438
394
367
361
359
365
365
379
372
365
358
363
361
360
365
306
611
387
357
363
374
380
386
395
416
434
429
420
381
351
346
342
341
359
365
359
352
341
345
354
344
325
504
356
355
350
359
366
369
382
407
421
428
409
379
344
335
331
339
340
352
358
334
339
335
340
336
338
298
541
364
337
344
350
357
377
400
401
422
418
392
355
332
333
326
339
356
357
340
341
336
343
342
347
301
574
382
342
344
351
367
363
388
406
412
415
393
353
329
325
325
329
343
353
339
339
336
332
338
343
335
367
416
342
333
336
343
355
366
390
409
415
423
383
351
326
324
321
335
341
344
332
326
331
340
342
340
303
509
361
340
341
355
352
373
389
413
417
419
395
354
336
331
332
336
351
348
327
332
335
340
337
344
294
554
370
338
343
350
360
362
385
396
415
412
394
356
331
331
336
338
349
355
336
336
332
337
331
344
290
583
354
341
340
350
355
363
382
399
408
416
402
369
338
320
319
325
339
349
338
317
331
329
330
330
328
408
368
351
342
346
353
359
378
398
409
417
408
383
345
334
323
336
340
357
343
326
335
329
338
328
337
356
425
358
343
344
352
354
370
384
404
411
415
380
347
329
323
324
332
344
342
325
327
330
328
336
338
294
546
367
339
340
350
350
368
380
409
408
415
397
351
333
324
334
328
340
359
354
331
339
335
340
339
333
396
394
356
343
341
360
363
379
395
418
418
412
387
350
333
327
326
345
345
350
325
329
332
331
341
337
293
538
368
333
340
344
352
362
379
403
404
414
387
348
324
316
316
316
332
347
332
327
324
333
325
333
315
439
346
348
336
342
349
359
379
396
411
417
407
376
341
329
324
324
331
349
342
323
324
332
325
331
333
306
483
364
337
341
341
354
369
386
403
419
413
392
336
332
320
322
332
344
344
322
331
331
338
335
336
326
468
360
339
343
352
362
368
394
407
416
409
378
346
331
321
323
334
344
347
316
325
328
333
325
326
379
374
356
330
339
340
345
366
379
397
396
391
369
331
310
307
312
325
336
320
318
311
314
320
318
303
471
335
327
329
335
340
350
362
382
397
408
391
359
324
319
315
314
326
340
319
315
317
319
320
325
291
528
343
330
338
333
345
362
367
394
415
410
400
367
337
323
324
327
353
344
333
325
332
329
335
333
292
596
361
345
350
350
360
367
384
414
413
413
401
361
348
326
330
342
364
334
340
332
336
334
335
334
303
526
370
329
341
348
353
372
387
400
410
416
385
348
332
322
330
337
352
333
328
325
332
332
333
325
402
369
355
337
342
353
355
373
389
409
416
405
379
338
326
320
324
329
352
344
325
329
328
333
333
305
489
338
335
334
338
338
345
365
379
395
396
389
352
329
303
306
310
310
328
314
305
306
304
310
310
307
276
510
348
310
319
321
321
340
356
378
381
380
362
322
299
294
296
302
319
307
300
300
308
301
312
311
265
564
340
318
323
335
339
354
369
393
395
404
395
352
324
316
318
334
345
335
334
329
336
339
346
348
314
549
374
348
349
363
368
389
395
417
431
428
401
363
338
335
337
349
363
354
349
352
330
340
348
355
301
589
369
345
351
358
357
375
389
396
427
415
394
362
333
322
320
315
334
315
306
305
308
310
305
293
384
314
304
296
294
306
304
317
339
347
355
344
299
272
246
249
248
263
272
261
251
252
249
252
256
217
477
264
262
268
271
283
289
305
324
348
348
339
303
275
268
271
272
292
303
290
283
294
292
294
300
252
555
342
318
323
331
335
348
368
391
405
415
386
354
335
331
332
337
346
357
342
336
342
345
339
349
313
544
377
356
354
359
373
385
401
418
423
424
406
378
337
340
339
351
355
359
349
341
345
343
347
341
406
392
364
345
348
355
360
378
393
409
406
409
379
349
335
330
325
342
340
330
322
324
325
320
322
279
574
338
325
332
331
338
352
364
379
392
401
386
343
325
303
322
340
336
318
322
320
320
327
328
297
496
365
334
340
346
351
361
385
404
409
409
385
345
333
324
333
346
340
317
314
318
326
316
316
256
556
336
300
307
306
303
315
323
330
340
336
325
272
257
235
243
251
250
233
220
222
222
213
222
175
461
240
223
233
242
246
262
282
302
313
321
314
273
256
249
254
269
290
282
280
276
291
297
305
282
508
322
332
331
346
354
367
391
410
428
430
427
393
360
354
360
372
383
367
361
363
368
371
370
360
473
399
402
380
384
388
399
416
434
436
453
448
416
385
365
366
372
390
383
370
368
370
366
369
370
416
421
393
376
380
384
398
411
423
440
442
442
407
368
352
350
368
366
374
360
347
350
356
349
361
309
592
384
357
355
370
370
384
398
421
419
427
405
360
341
333
339
347
354
348
341
336
345
338
345
322
474
354
358
341
346
354
365
371
393
406
407
405
366
338
324
325
328
329
356
337
332
336
336
336
342
322
450
356
357
342
352
358
374
382
398
424
421
421
378
348
333
338
331
351
364
347
332
339
338
343
347
294
598
358
344
351
355
357
372
387
401
411
422
393
354
341
324
321
326
347
346
329
328
326
328
332
339
282
585
355
336
338
345
354
363
379
397
411
415
394
362
330
327
322
327
346
348
341
334
331
336
343
341
294
591
353
347
346
361
357
381
388
413
423
439
414
374
346
341
332
343
366
353
339
337
337
335
342
335
311
527
361
340
349
352
361
372
394
406
415
415
392
345
329
329
334
336
346
340
327
334
323
330
334
317
478
345
346
338
343
345
358
367
384
407
410
401
367
332
326
313
329
345
340
333
328
328
327
331
334
298
542
364
339
349
354
369
364
393
422
420
428
392
362
341
334
343
340
366
365
339
340
344
348
340
352
303
535
368
356
355
367
368
374
401
413
432
418
396
353
333
323
335
340
348
338
326
329
327
331
334
283
586
347
329
335
340
340
354
362
385
403
400
389
342
320
310
312
323
340
319
319
330
315
316
328
320
388
362
348
329
337
341
353
373
393
400
416
413
380
341
325
326
324
331
344
352
327
330
330
333
341
342
292
574
344
344
340
349
357
368
389
396
414
417
406
367
338
329
325
332
349
351
333
341
323
325
326
333
289
567
333
327
323
325
326
338
343
367
371
378
348
311
282
264
265
270
271
284
261
256
255
244
248
248
236
357
255
251
241
251
249
256
272
289
312
314
302
279
242
230
225
235
252
259
258
246
248
264
258
269
268
303
359
309
297
301
315
324
340
362
382
396
392
371
331
319
322
323
338
354
343
332
337
338
348
353
347
448
377
377
361
373
376
384
403
417
435
445
441
409
366
357
358
362
365
378
384
363
366
366
372
374
376
332
574
404
370
382
384
394
399
421
428
449
439
425
387
363
362
356
361
378
380
364
363
365
358
363
367
332
542
387
360
359
373
378
388
408
434
432
431
400
363
349
333
344
353
367
351
345
338
340
344
340
350
366
426
371
348
350
357
363
373
393
409
420
411
386
348
329
330
327
336
354
344
329
332
333
334
332
326
294
522
354
341
340
350
353
370
377
401
419
413
388
350
335
325
321
338
347
331
328
333
330
336
332
302
537
342
341
346
349
354
374
384
406
430
426
401
369
333
329
325
341
357
358
332
324
334
326
339
338
298
499
366
349
332
343
359
358
376
396
416
398
372
333
309
300
303
304
309
288
286
288
278
280
283
224
520
288
271
272
286
275
291
303
323
364
347
321
283
273
242
251
266
276
262
271
263
272
275
284
244
516
306
293
295
310
319
329
357
375
382
392
385
344
327
312
318
338
347
335
329
335
328
334
337
307
548
354
360
341
353
357
375
389
420
419
429
409
377
360
338
343
354
361
358
349
342
355
352
362
352
302
605
381
353
362
367
376
371
419
409
432
435
405
376
350
344
341
355
369
354
350
353
357
359
360
313
600
368
366
360
363
375
384
392
419
428
416
406
365
343
329
319
334
348
327
323
320
333
317
325
299
498
339
330
323
320
332
343
354
372
387
396
379
344
315
300
298
303
323
318
308
297
310
311
309
314
356
381
340
321
331
339
350
363
380
395
410
403
374
342
331
327
328
345
361
344
341
343
338
349
349
347
432
390
368
352
366
367
374
386
405
424
432
422
388
362
336
331
339
365
354
343
340
339
340
343
341
341
441
366
345
346
360
362
383
396
410
419
411
383
342
333
327
337
342
363
344
334
339
337
336
344
323
501
359
351
348
349
357
365
381
399
415
417
405
376
342
330
330
330
347
360
345
335
342
337
340
348
295
588
371
353
354
356
372
381
394
412
427
424
411
371
349
343
346
350
363
361
350
351
347
352
350
348
315
547
381
349
353
365
361
377
393
409
420
415
398
346
329
323
328
335
352
339
325
321
330
323
334
316
427
357
341
335
330
347
350
365
384
398
405
386
364
328
321
318
320
332
342
330
326
326
333
338
342
291
601
365
346
352
362
366
379
396
417
428
430
415
373
352
348
348
353
360
363
353
346
348
350
344
355
337
471
368
346
358
362
367
378
395
411
417
412
374
337
324
314
322
321
340
321
310
305
312
316
316
294
468
327
321
317
325
335
337
353
381
383
399
379
350
314
302
307
312
329
327
314
314
314
319
326
331
277
568
356
331
348
351
354
371
389
411
418
418
396
360
334
331
332
336
354
348
340
335
337
344
338
331
479
353
354
346
353
360
375
393
406
427
428
417
383
346
335
332
339
357
357
339
329
335
327
340
342
283
590
364
340
341
348
357
358
389
401
413
410
391
351
325
320
318
320
332
344
335
328
319
325
326
327
308
488
347
332
334
339
346
362
366
394
406
416
415
364
338
332
325
334
346
356
340
333
335
339
338
344
347
315
520
366
346
348
355
365
375
392
417
420
416
390
358
334
331
342
344
365
344
339
339
337
335
341
281
589
364
331
340
337
345
362
382
389
401
404
363
332
309
302
297
304
317
325
306
301
303
303
304
310
263
556
341
310
319
322
336
347
355
384
390
401
378
349
314
313
309
320
329
342
328
322
328
329
329
335
309
527
338
345
333
346
354
366
375
397
410
422
400
370
338
329
325
331
342
351
341
330
333
330
334
338
309
516
340
343
338
340
351
361
378
393
407
412
400
361
332
320
315
319
329
348
333
320
325
322
325
328
329
280
568
357
333
338
345
350
364
379
398
420
412
382
357
341
329
330
337
334
345
355
339
340
341
341
348
344
363
427
374
358
361
362
374
391
409
428
437
426
404
363
342
338
342
349
360
358
343
333
342
340
345
342
291
600
367
346
349
352
360
370
385
406
418
422
398
356
333
324
327
328
342
349
331
327
329
333
330
332
287
564
360
334
338
344
357
363
383
403
418
411
393
351
334
320
321
323
332
345
334
325
328
335
337
335
311
512
338
345
346
347
357
368
378
404
419
424
415
379
341
331
333
325
339
354
350
337
336
343
339
338
334
413
366
355
341
348
353
360
378
400
411
417
411
374
339
320
322
322
331
348
343
326
325
332
331
326
333
292
544
357
334
340
343
350
365
369
395
408
408
381
350
330
329
316
321
331
337
335
326
324
329
327
332
319
466
337
348
337
344
350
360
382
397
417
423
419
380
345
333
325
329
343
358
339
332
327
334
338
330
335
343
441
368
340
346
350
367
368
381
404
411
405
378
341
325
321
319
332
348
329
314
316
315
318
324
303
459
333
330
329
328
333
350
355
374
393
401
395
357
330
318
310
322
325
340
321
318
321
316
318
323
321
306
482
345
330
333
341
347
363
384
395
405
414
382
350
331
322
320
334
344
331
318
323
319
325
332
314
456
347
352
335
348
356
357
373
392
415
419
401
369
338
323
322
332
341
352
335
318
329
325
324
330
294
555
346
337
340
342
340
346
358
384
400
411
397
361
338
330
327
328
342
335
320
322
329
328
329
341
282
579
354
334
342
346
356
367
385
404
420
430
391
360
327
323
328
337
341
330
327
324
332
337
338
289
576
339
334
339
334
347
352
371
383
400
408
396
355
331
323
322
325
334
326
309
316
332
329
331
331
383
378
359
341
342
340
352
379
392
415
419
420
382
337
322
324
330
350
350
342
336
336
337
339
338
295
556
363
339
345
353
355
372
393
407
413
413
388
352
327
328
332
338
345
323
326
324
332
334
335
299
543
355
343
340
349
355
363
372
394
413
416
403
361
344
322
322
326
325
343
335
330
334
333
335
335
297
555
335
339
337
345
356
368
384
402
407
422
400
360
333
326
320
329
342
351
340
330
335
334
334
345
273
556
360
337
340
348
354
370
383
401
410
409
380
342
323
315
316
324
337
324
321
311
316
322
318
315
328
414
336
322
322
330
333
346
362
376
390
387
351
325
313
305
311
312
325
309
311
311
313
307
319
275
560
342
320
323
328
337
348
362
380
391
402
380
331
317
315
317
317
337
324
318
321
321
324
326
287
537
345
332
334
341
341
354
368
386
404
409
388
353
332
319
322
336
342
323
313
313
315
323
320
291
501
320
331
325
327
333
343
353
375
387
390
386
342
316
303
303
313
329
316
303
308
309
308
306
270
543
318
318
317
329
331
342
358
373
384
384
373
330
302
301
304
322
316
306
292
298
295
295
301
271
500
312
316
311
317
317
334
349
366
384
382
376
336
308
300
300
310
324
318
303
308
314
319
318
289
516
330
333
335
343
349
368
377
393
413
412
396
364
336
326
324
334
348
354
337
335
335
341
344
343
297
569
364
344
349
359
368
376
401
412
432
423
401
364
347
339
338
359
365
352
346
343
345
346
350
308
548
343
348
341
351
355
368
374
397
413
412
405
367
332
324
320
331
340
341
328
327
328
333
333
336
282
587
357
333
341
344
352
364
379
398
413
420
401
362
343
335
337
338
344
353
338
331
330
335
339
341
330
465
347
352
344
346
352
358
374
389
408
404
398
363
324
310
300
306
312
327
313
299
298
295
293
290
292
298
384
317
287
296
302
307
324
331
352
356
352
322
283
274
269
263
275
290
292
270
275
277
280
284
286
243
513
321
291
298
308
314
332
345
365
378
382
362
324
304
296
298
298
312
317
308
303
304
304
311
311
278
536
312
318
312
322
334
344
361
383
394
400
385
351
320
314
312
315
332
336
322
320
319
331
340
329
284
595
362
340
344
352
364
388
386
400
417
428
404
356
342
334
337
345
355
359
350
341
334
341
344
349
305
611
368
352
353
363
368
375
393
407
424
421
405
368
336
329
341
337
352
343
333
336
338
340
350
339
419
369
360
347
350
366
364
381
405
421
424
412
380
351
342
336
348
361
362
343
341
335
342
348
343
302
571
371
343
352
354
359
374
385
406
413
410
387
355
338
325
327
340
356
332
332
331
332
333
336
325
437
376
369
339
352
355
364
372
387
402
409
402
359
340
318
319
321
340
328
315
311
314
317
310
302
288
470
334
305
311
310
325
329
352
368
372
367
328
292
276
270
279
295
296
285
274
272
271
272
267
253
406
299
274
285
289
291
306
325
352
352
349
324
287
276
275
281
290
303
291
283
290
296
299
315
291
436
328
334
326
334
336
347
359
383
401
413
403
368
346
338
337
340
346
360
352
341
347
351
354
361
363
375
457
387
371
372
380
387
401
416
442
442
447
411
373
362
349
350
351
373
356
348
348
346
340
348
344
313
527
372
338
343
349
354
363
377
395
401
402
366
334
315
309
308
314
329
318
303
308
308
308
309
308
289
459
336
317
320
322
336
347
363
385
393
396
361
334
316
316
320
323
336
336
326
325
328
330
334
340
294
589
367
341
344
355
357
369
383
410
423
424
401
360
345
338
337
347
350
370
356
344
350
352
350
354
337
488
370
365
361
365
373
381
394
410
424
431
422
390
354
345
349
344
350
364
366
356
349
351
353
360
350
315
563
378
347
358
368
375
383
394
421
424
427
393
359
337
335
330
333
348
349
337
333
327
326
333
330
291
587
352
331
342
346
354
371
380
405
417
412
391
349
328
321
326
334
348
347
326
328
329
331
332
333
321
475
359
331
340
342
352
366
383
396
405
400
373
332
322
312
311
323
335
328
319
320
323
317
326
327
288
539
355
327
331
343
348
363
374
396
409
411
389
348
336
329
330
332
351
347
335
336
331
340
345
344
303
588
375
344
351
354
360
379
400
404
429
425
406
369
343
328
334
333
350
357
342
334
340
340
343
336
295
584
365
342
342
350
360
361
382
397
407
412
376
342
317
315
315
323
330
327
319
318
322
322
327
320
358
401
349
329
338
347
348
366
376
394
407
405
374
340
329
316
322
343
355
332
332
336
336
339
341
298
576
349
343
346
361
363
369
391
395
406
405
388
355
321
308
314
312
325
315
296
289
290
279
282
278
231
476
287
261
260
256
264
270
283
300
304
299
270
230
209
232
206
228
247
221
206
220
210
216
213
222
235
341
273
246
242
262
271
292
315
347
350
355
327
300
288
286
297
314
323
310
315
325
329
328
333
285
615
371
348
362
367
378
391
403
431
445
446
429
395
376
364
361
371
379
373
366
364
361
366
371
364
323
578
397
367
367
373
382
387
397
411
416
420
401
356
340
335
332
339
351
336
327
324
329
325
331
328
288
543
351
328
331
341
347
362
380
400
409
407
383
348
332
327
329
346
358
352
336
343
339
343
349
343
388
412
375
356
360
363
373
383
397
417
423
413
385
346
331
330
330
338
348
343
326
327
331
332
326
321
365
387
344
329
336
341
344
360
375
395
394
396
366
325
328
328
321
334
350
339
329
329
335
335
338
341
307
556
365
348
349
359
365
380
390
410
422
418
394
356
338
328
335
340
361
345
332
338
338
339
344
340
436
372
362
350
352
365
367
378
401
419
417
414
376
346
335
330
334
340
356
347
329
333
332
332
336
329
356
416
356
339
342
349
353
368
381
401
404
405
372
339
325
325
323
333
338
349
335
330
332
329
333
338
287
578
345
331
344
344
344
364
378
394
412
412
395
355
333
322
310
324
337
348
335
330
326
327
335
334
311
500
342
348
345
353
350
363
379
395
408
419
405
375
340
336
333
331
340
355
355
339
337
339
339
337
342
305
522
364
341
346
349
356
370
385
403
411
411
382
344
332
329
324
334
340
349
335
329
327
327
330
340
305
542
344
350
345
347
346
360
372
390
402
415
394
361
332
328
324
321
327
347
347
332
336
343
339
340
341
361
407
356
327
330
336
351
357
370
397
398
394
349
315
302
291
289
294
296
309
288
283
286
275
279
281
246
463
294
287
279
285
298
302
309
338
346
356
345
312
283
276
281
284
284
298
301
309
301
303
306
309
313
314
280
521
353
329
333
344
352
368
379
404
410
414
391
351
341
336
339
344
348
356
370
348
345
349
352
359
358
358
418
394
383
369
372
384
388
399
416
438
442
442
414
372
359
350
356
355
366
374
356
354
351
355
352
360
326
541
388
364
360
371
377
388
403
424
430
424
403
360
345
336
338
336
351
361
347
337
337
343
341
343
337
323
475
369
342
344
351
361
371
387
405
411
409
384
347
336
330
327
328
335
343
347
354
338
337
343
341
345
337
403
384
365
352
354
359
371
380
394
414
420
418
390
347
333
327
320
328
336
345
352
336
328
330
335
331
333
284
577
360
334
335
346
349
361
375
396
406
408
392
344
328
321
325
305
320
339
340
332
329
322
327
326
331
287
585
365
342
346
349
356
370
380
400
414
415
404
362
336
328
327
334
337
349
354
335
336
340
341
339
344
304
549
374
345
350
357
369
380
395
421
433
428
398
362
340
333
334
333
348
361
359
335
343
342
337
335
347
288
599
363
345
339
350
355
368
385
402
417
417
403
358
342
326
317
325
335
343
346
325
318
329
322
328
322
306
472
348
320
318
322
330
333
344
359
366
347
316
276
254
237
230
229
229
237
219
202
202
201
197
197
165
371
189
196
184
192
209
215
231
248
268
275
262
230
206
197
192
200
218
237
219
221
234
238
248
262
239
463
278
293
305
308
325
337
360
388
405
424
410
371
354
338
338
356
375
377
379
369
372
380
378
383
382
429
465
414
399
397
413
419
437
453
470
480
469
439
402
384
380
386
396
407
390
375
383
385
387
381
383
367
544
398
382
386
398
399
408
430
441
458
457
415
377
363
355
347
351
362
383
360
352
358
353
358
354
333
525
358
362
355
364
368
375
395
412
430
428
422
381
343
332
329
334
341
355
344
334
332
333
333
344
340
286
611
352
342
343
346
348
368
379
401
417
423
401
362
326
320
321
318
341
350
339
330
331
336
336
344
334
404
381
362
352
357
365
374
383
405
426
435
432
391
356
345
342
335
350
365
362
342
334
337
341
345
335
334
408
369
351
339
349
350
360
374
396
411
419
418
376
343
330
325
330
326
347
334
327
327
327
327
326
330
341
425
355
331
340
343
355
370
388
405
417
412
371
339
321
316
318
322
336
342
325
321
321
325
322
334
292
547
335
336
330
343
348
348
372
387
407
411
400
358
331
318
322
314
329
337
348
332
325
334
338
331
340
324
513
348
356
346
356
357
372
384
402
416
428
417
382
356
341
330
335
343
363
355
344
341
338
339
347
342
295
599
367
346
349
359
367
376
390
416
422
426
402
361
338
325
327
334
347
356
338
334
334
333
336
333
331
393
386
353
339
343
355
363
374
392
414
418
420
381
350
328
325
325
335
339
351
359
335
340
335
338
338
340
295
589
358
341
350
351
367
380
391
404
425
435
415
384
352
340
343
349
343
357
372
362
344
348
354
352
351
350
352
465
376
357
360
367
370
387
401
421
433
425
396
356
341
337
328
338
356
348
334
332
329
334
338
340
316
529
340
349
337
349
354
364
377
393
410
421
394
363
334
316
315
314
323
333
328
312
320
313
319
322
324
266
574
350
323
325
337
342
354
368
385
403
412
394
356
335
325
327
329
340
349
344
332
333
330
334
333
339
303
527
361
330
335
340
343
357
371
391
403
406
375
331
309
293
292
294
306
315
300
293
283
290
293
300
281
395
318
308
299
290
304
313
332
346
359
372
364
327
298
277
278
279
289
297
306
290
280
289
290
290
292
278
397
322
312
294
302
308
318
332
350
367
379
375
339
310
292
293
293
300
312
318
302
302
305
312
316
318
291
503
321
330
321
331
342
349
370
387
404
411
402
365
333
321
321
319
329
343
339
329
328
331
333
336
338
283
595
354
336
331
338
345
355
372
393
400
399
380
340
302
297
296
296
299
319
313
294
293
299
295
292
295
246
553
317
301
308
311
315
336
346
365
381
382
376
335
319
308
310
315
328
335
333
323
330
331
336
338
338
322
492
370
353
360
364
372
391
404
426
440
440
413
380
351
348
349
359
371
374
355
355
356
357
359
361
339
528
359
364
360
360
368
368
389
390
406
416
402
366
333
315
312
304
322
331
322
311
313
312
307
311
313
269
525
338
309
317
327
335
346
361
376
387
390
365
326
315
307
305
311
324
337
325
327
323
328
330
331
329
308
496
364
337
353
363
376
380
385
412
440
419
407
375
343
345
335
349
355
363
357
332
345
348
338
350
306
569
347
351
346
354
356
369
392
406
416
422
402
374
341
328
330
336
343
349
335
333
333
332
338
331
333
325
469
363
338
335
346
352
355
379
393
393
391
362
315
294
287
283
286
299
282
280
259
274
266
255
230
208
498
270
245
251
262
251
263
286
304
323
327
314
278
259
250
246
260
264
281
265
266
278
282
284
291
260
521
306
307
313
325
336
347
367
387
403
414
402
370
338
345
333
346
362
366
357
350
350
364
363
366
318
633
388
370
379
381
386
399
409
435
448
448
431
396
369
356
358
367
371
381
367
364
361
366
371
369
360
433
413
380
369
374
380
387
400
415
431
434
433
408
370
348
352
346
360
366
353
345
349
348
349
358
354
305
614
372
360
356
361
372
382
401
413
427
424
415
348
342
331
329
338
356
340
329
333
336
329
329
332
282
584
366
331
336
338
350
356
380
390
404
405
388
356
328
321
323
328
342
344
324
319
332
331
339
339
291
589
359
347
345
351
365
388
382
406
424
424
413
371
348
335
337
337
362
342
334
339
337
337
335
333
290
583
351
338
337
351
343
362
367
390
410
402
393
357
335
319
317
316
325
338
334
329
329
327
341
340
321
429
364
350
336
342
352
369
374
391
409
416
416
383
347
334
338
341
341
352
337
329
330
331
334
329
330
350
425
365
336
341
342
354
359
381
405
404
413
379
345
326
322
332
340
347
328
324
327
328
331
342
303
517
353
342
335
351
357
364
374
403
413
419
412
379
345
341
328
334
342
353
341
336
341
343
353
346
300
605
378
345
356
353
353
368
374
393
409
407
386
352
320
315
304
311
311
314
298
284
282
284
279
278
220
512
299
260
266
271
268
285
297
311
320
318
300
269
246
230
239
251
263
241
238
244
242
254
260
226
464
283
275
277
287
291
313
323
342
361
373
361
336
309
305
307
325
339
323
320
326
326
336
335
346
325
498
377
355
362
370
381
388
407
424
436
431
411
377
358
358
364
378
365
358
358
358
364
363
369
321
616
389
372
370
375
378
386
399
413
423
432
413
377
358
345
351
357
366
347
343
345
347
351
347
342
425
394
381
361
370
372
382
395
399
418
420
421
390
360
344
350
355
357
340
326
327
332
333
328
331
397
365
348
338
340
354
362
363
382
393
394
396
368
337
324
335
348
350
329
317
324
327
338
334
285
570
358
329
347
344
348
369
381
401
407
407
390
348
332
328
327
348
334
317
326
329
331
331
332
313
463
353
329
334
338
349
367
373
400
407
416
376
342
339
331
343
349
337
332
332
338
336
345
315
537
358
353
361
371
368
394
383
406
423
424
406
378
349
338
343
363
368
339
343
335
341
339
351
303
569
375
358
353
371
374
379
402
422
422
419
400
356
337
336
348
367
334
334
340
336
328
336
300
535
331
337
331
346
348
354
375
390
396
399
389
344
324
309
317
336
322
315
316
325
326
331
322
360
400
356
336
344
350
365
367
393
401
410
407
373
338
328
328
354
354
341
330
332
333
325
339
306
486
346
345
348
348
359
366
376
395
398
409
408
375
343
332
328
341
347
329
320
325
319
324
322
303
443
345
312
316
323
336
339
352
372
370
368
324
292
269
270
270
272
253
244
239
226
232
227
163
454
228
214
207
218
223
231
247
257
266
276
264
219
204
209
221
235
219
215
221
215
220
246
186
463
278
256
268
280
293
308
327
345
352
361
333
309
298
305
324
328
309
311
312
319
321
326
326
444
366
351
364
372
385
396
417
432
441
437
407
378
370
376
392
373
372
365
364
369
374
334
603
374
381
379
389
398
403
415
428
446
446
434
394
372
374
383
384
370
362
364
364
370
367
330
615
388
363
375
381
386
398
414
429
441
436
412
378
359
359
368
375
356
351
350
348
351
350
329
511
382
358
361
367
384
391
412
422
433
429
404
363
343
337
345
346
339
333
337
338
338
349
303
543
351
341
339
344
353
364
381
399
405
399
373
339
321
319
336
345
328
321
322
321
322
325
310
445
347
331
333
342
353
372
383
401
402
402
365
334
318
322
333
345
321
311
304
310
306
309
261
526
304
292
293
301
307
318
333
347
351
349
323
282
266
252
261
281
276
273
275
273
279
280
236
508
282
278
286
293
301
318
340
362
372
376
357
328
308
297
310
322
314
303
303
307
312
318
287
549
326
338
340
343
352
363
376
398
410
410
402
369
348
343
340
349
358
365
351
351
353
352
353
313
588
349
356
352
363
363
370
379
400
402
410
399
366
342
336
337
338
350
353
345
347
340
347
350
326
498
367
364
356
368
373
376
388
398
414
415
403
377
342
328
318
325
338
322
306
303
304
305
307
259
538
320
309
310
317
324
332
343
353
368
369
352
327
304
301
302
308
334
313
306
307
303
311
317
332
381
342
327
334
341
360
366
381
397
401
397
371
343
331
325
333
350
349
334
336
340
340
341
308
553
348
353
345
352
355
368
384
393
404
406
392
366
341
334
335
344
364
356
340
343
346
345
345
296
595
379
359
345
356
365
383
390
408
412
411
388
354
339
334
331
338
350
337
333
331
341
340
343
325
472
366
340
347
349
360
374
385
397
401
403
379
351
337
336
340
344
355
334
330
324
327
328
301
530
358
354
353
355
362
367
379
392
406
403
394
366
342
342
337
347
362
346
327
329
328
326
331
280
544
368
343
350
358
364
379
391
406
416
413
395
359
349
336
342
358
371
356
345
343
345
347
343
368
392
362
342
353
350
360
371
383
393
395
387
357
328
312
308
314
332
307
298
293
293
292
293
273
415
320
301
304
309
318
329
344
358
361
363
335
306
299
295
307
319
308
302
300
302
306
309
266
528
341
318
325
331
335
350
370
395
404
406
379
355
336
341
340
347
356
334
328
326
340
341
342
361
428
367
352
351
349
354
357
378
395
404
395
365
331
315
305
325
325
322
307
301
298
298
305
271
578
336
331
334
340
343
355
375
396
407
400
379
349
332
329
337
353
350
335
333
331
335
331
310
520
344
354
379
316
354
359
380
395
410
414
395
353
332
320
322
325
348
326
325
338
324
331
340
286
599
371
342
386
353
350
372
387
424
419
436
403
375
347
335
353
353
352
351
362
341
334
352
340
330
498
382
344
354
355
362
379
397
408
423
418
377
348
324
332
322
349
341
345
305
326
325
341
314
467
340
335
340
326
343
351
370
391
401
411
397
364
334
339
332
338
334
347
343
330
351
347
352
329
462
372
357
349
356
368
363
366
392
399
410
388
357
323
322
316
326
334
348
342
331
336
328
335
333
278
591
364
338
341
353
353
359
379
398
408
414
386
352
333
317
318
327
332
336
319
324
315
327
321
305
469
337
335
336
322
340
356
367
385
400
398
378
339
314
296
287
304
308
314
299
284
284
279
284
247
448
274
281
266
266
272
278
290
311
322
331
303
262
236
225
227
235
254
261
239
241
245
254
253
224
473
281
283
280
278
288
305
329
355
380
386
371
336
312
305
306
318
336
338
335
339
344
351
349
321
570
384
367
367
374
386
399
420
446
460
464
452
418
397
388
384
388
391
410
406
391
398
408
404
406
364
652
420
408
401
405
411
417
432
448
458
467
435
399
376
359
357
370
359
363
379
359
360
362
361
356
354
317
540
382
353
363
366
370
379
396
426
430
415
396
357
336
331
325
329
337
348
332
326
324
322
326
322
275
547
351
322
325
322
343
344
368
387
392
381
359
326
295
295
288
298
317
317
296
302
282
299
294
296
308
395
324
308
310
318
329
340
361
390
404
388
349
332
312
320
319
326
346
341
331
339
341
338
348
331
479
358
361
353
360
360
369
386
404
424
430
410
369
342
329
325
328
337
351
334
328
333
333
329
330
274
585
355
335
339
344
353
372
382
407
416
418
388
352
334
328
330
332
344
358
345
339
341
346
342
350
320
510
366
359
356
353
355
365
386
401
421
428
412
371
345
331
335
338
339
348
357
346
337
350
349
350
356
306
596
379
354
361
367
377
388
407
429
439
427
406
365
339
324
314
326
335
343
330
313
330
328
328
336
292
559
354
337
339
340
342
361
382
394
407
405
372
334
321
311
315
324
326
340
328
320
325
326
326
330
277
578
354
333
339
342
344
362
381
396
402
410
386
346
323
317
316
320
331
337
342
330
322
331
325
332
337
280
568
365
340
343
357
359
376
384
408
429
420
403
370
344
340
339
344
346
363
370
355
352
361
350
359
356
324
530
379
356
362
362
367
378
395
423
420
421
392
344
326
321
328
323
341
349
336
329
318
323
323
318
293
498
321
321
322
332
325
345
357
375
398
396
378
344
310
302
299
299
306
316
323
306
303
307
312
313
319
263
566
355
315
319
324
342
358
371
395
406
404
379
338
309
316
312
322
326
340
335
326
312
313
312
318
318
326
438
356
333
336
350
354
369
376
399
414
417
380
346
332
324
330
336
338
354
343
337
335
340
343
351
310
554
349
350
350
361
363
385
391
412
429
434
413
375
350
339
331
327
348
343
358
334
332
334
329
338
331
292
491
348
313
318
320
320
337
349
361
365
366
333
286
268
259
258
256
269
276
260
254
253
255
254
254
250
311
314
287
274
281
292
301
314
334
362
363
360
334
300
289
291
297
305
313
327
319
311
329
325
328
337
294
571
364
348
339
361
358
365
388
400
421
422
413
368
342
335
334
335
336
343
350
340
330
336
348
341
349
377
410
364
352
357
365
372
391
409
427
443
436
396
360
347
351
343
357
359
355
345
351
354
347
351
295
596
358
351
340
352
346
364
378
407
418
412
396
344
329
327
311
330
341
337
324
324
331
319
320
312
321
416
341
320
331
333
339
353
373
397
416
401
369
334
323
320
325
330
346
336
321
331
339
331
341
287
571
368
340
338
355
356
378
389
412
429
425
409
373
352
344
339
361
370
376
356
362
363
368
357
365
313
609
389
362
379
373
376
380
409
420
439
427
397
357
340
324
322
325
333
318
302
295
302
297
303
297
363
343
316
295
298
304
306
320
347
363
375
352
329
284
272
276
280
296
294
281
284
292
291
301
313
276
472
342
315
327
338
343
360
376
404
413
411
376
343
327
333
328
334
359
351
335
346
340
340
352
338
304
591
387
349
361
364
370
379
402
418
433
427
408
371
355
352
361
360
360
377
363
361
347
351
353
362
328
576
378
373
372
372
384
384
396
420
434
433
417
370
344
336
327
330
338
345
336
323
333
332
331
334
329
342
420
354
335
336
338
349
362
388
396
403
412
357
331
315
309
315
317
342
328
316
317
320
317
317
317
274
557
358
322
335
345
343
355
373
391
402
401
369
333
319
316
311
321
326
349
339
325
331
329
327
335
340
285
556
363
342
353
360
367
373
401
424
438
434
404
359
347
344
343
351
349
365
359
350
349
341
344
347
351
341
456
376
347
350
352
362
372
387
404
407
401
362
329
313
309
308
314
328
338
321
314
320
310
318
322
283
542
339
334
326
332
342
346
363
384
394
402
391
347
325
315
317
320
328
340
339
329
326
325
331
334
334
300
537
377
338
353
363
357
383
401
414
423
430
393
359
350
327
330
342
351
368
344
344
343
345
349
353
304
609
380
369
366
369
382
390
410
427
446
454
421
377
358
355
354
362
363
374
362
358
354
361
359
366
347
446
389
376
354
360
368
376
389
408
414
426
422
369
343
330
318
324
315
332
353
329
323
333
327
327
333
327
274
577
369
330
345
342
355
363
377
400
411
408
388
347
324
324
319
319
324
327
344
333
328
326
334
332
335
329
417
377
354
340
350
346
366
374
391
416
420
409
373
339
337
322
333
338
331
352
359
335
334
337
331
335
334
273
583
353
333
328
337
340
347
365
380
397
391
372
331
290
293
286
287
290
299
313
297
291
294
291
290
286
291
299
383
323
292
306
309
316
332
351
366
377
376
336
303
298
287
289
296
295
304
315
312
303
313
314
318
317
295
481
339
331
328
331
332
353
359
387
408
414
401
368
343
336
327
326
328
332
354
340
321
334
333
345
342
337
393
393
354
338
350
346
360
369
393
423
427
416
385
346
335
326
327
335
354
356
331
341
332
343
346
340
318
522
376
350
347
358
368
385
393
416
421
421
392
353
338
327
340
338
354
356
341
332
341
335
342
350
302
565
351
352
350
352
357
371
380
403
416
427
400
365
338
323
324
321
336
333
340
328
328
326
337
330
325
283
569
361
338
347
347
357
373
387
407
417
411
387
337
314
303
312
302
323
334
327
310
306
315
304
311
312
273
500
333
314
323
339
336
351
367
386
391
392
365
321
317
303
305
314
322
332
316
309
311
316
318
316
280
523
332
320
313
324
329
335
348
373
390
405
381
349
320
316
315
325
326
326
336
317
324
324
326
334
336
295
559
341
344
347
354
358
357
376
394
413
418
410
363
343
324
325
321
336
351
336
322
335
336
344
350
351
313
556
380
342
351
365
357
386
399
406
423
428
396
356
336
330
329
338
340
353
349
348
346
339
348
346
348
401
403
374
354
361
367
375
384
399
421
425
420
388
345
343
331
340
331
355
359
342
341
341
336
334
333
333
307
510
363
341
343
351
351
368
396
401
417
410
383
342
329
313
308
318
329
335
322
316
315
318
320
323
304
493
333
332
327
337
339
347
370
384
397
400
394
351
324
308
306
308
310
322
328
324
319
316
324
321
322
327
306
472
347
335
339
355
362
365
383
403
419
412
393
352
331
329
330
331
323
331
344
343
329
332
337
334
339
345
286
569
374
344
351
353
359
369
383
397
401
405
383
349
311
314
303
298
314
313
322
301
288
290
286
289
277
275
356
313
288
277
277
287
286
300
314
332
338
335
307
271
258
255
262
261
271
291
276
271
289
288
283
296
301
305
393
325
309
317
332
344
347
372
410
410
409
394
362
345
339
346
341
363
379
366
354
361
352
364
354
371
307
613
394
357
363
384
380
369
404
412
422
435
395
359
337
316
311
325
341
341
340
324
332
323
336
328
340
282
578
366
347
346
354
365
375
399
414
431
429
411
369
350
348
339
339
354
358
347
333
334
340
338
347
342
368
398
358
341
346
349
353
364
380
397
400
405
364
330
312
312
305
326
336
315
304
310
309
305
320
323
276
523
324
323
317
324
339
335
355
371
390
389
390
345
314
314
314
328
338
347
339
344
333
336
344
345
336
440
375
368
358
365
375
380
399
412
427
436
428
394
362
350
340
339
348
371
357
345
347
340
348
337
344
291
579
361
334
340
341
350
364
372
389
406
396
374
340
305
299
298
308
320
326
321
318
327
318
322
324
302
451
340
331
329
341
351
360
371
393
403
414
408
372
345
336
337
347
350
361
348
337
348
339
347
354
352
402
416
377
372
376
379
385
398
419
444
444
445
408
379
354
348
350
366
375
354
347
352
349
343
352
342
408
385
360
343
346
354
360
373
392
407
410
407
373
338
320
323
322
338
334
318
313
325
318
314
321
307
423
350
338
318
327
336
342
349
376
383
387
383
353
314
307
301
305
319
331
309
305
309
316
318
322
308
437
350
332
329
337
349
358
368
390
412
411
416
369
340
332
327
326
341
345
331
334
328
334
336
340
352
304
581
374
350
352
360
366
379
391
409
415
418
391
351
331
318
325
334
340
327
316
313
314
315
308
305
274
488
328
303
303
310
308
320
341
351
352
351
328
290
275
261
269
284
302
295
286
293
294
290
297
293
255
548
329
307
311
324
334
346
360
382
389
404
381
340
323
315
312
327
342
336
323
318
317
324
327
328
288
563
342
336
341
334
345
352
362
385
392
398
386
350
319
304
308
310
326
335
310
310
309
318
308
318
313
379
369
340
326
336
333
339
356
371
386
406
395
364
330
313
301
315
323
333
318
314
312
313
309
312
305
364
362
338
320
321
325
329
344
364
378
388
391
354
334
318
322
323
329
355
338
331
339
334
345
338
347
345
500
384
364
373
378
384
393
410
419
440
434
400
366
343
338
344
346
356
342
335
342
341
343
344
343
333
455
378
347
348
358
366
383
391
418
421
427
394
368
356
350
351
362
381
363
356
358
364
368
364
367
349
508
398
374
382
387
385
399
424
428
440
439
402
365
350
332
342
339
361
350
341
333
324
332
328
331
287
572
351
345
334
346
351
358
377
395
400
400
387
354
320
318
323
325
342
332
327
330
319
322
328
334
282
586
358
334
340
336
347
358
360
378
394
392
372
349
314
321
315
328
340
326
315
318
322
326
325
318
288
545
344
324
331
329
338
347
357
373
389
384
375
338
315
303
303
304
319
326
310
304
312
311
308
311
272
556
336
319
320
327
323
341
357
369
390
386
364
330
304
301
294
306
320
305
301
298
304
304
302
302
297
424
341
314
317
329
336
349
361
380
384
390
364
325
312
311
314
328
332
318
311
311
313
322
326
323
373
392
353
340
336
351
360
366
391
402
406
414
368
342
335
325
316
338
346
324
333
321
330
333
339
312
499
340
343
342
338
346
348
364
387
404
405
396
359
320
316
307
316
342
322
308
308
312
302
307
310
268
515
333
306
310
318
327
334
345
364
373
374
352
308
291
284
301
305
310
295
294
303
302
310
316
269
558
342
324
326
330
344
355
369
388
404
408
395
361
329
329
325
333
343
330
321
316
324
324
325
327
274
569
345
320
336
323
337
347
370
384
396
406
390
354
320
320
314
325
330
321
319
313
319
321
324
301
484
339
339
333
333
341
352
360
384
394
391
380
347
315
303
309
308
330
319
305
312
314
309
316
318
274
565
344
325
337
338
352
352
369
393
404
413
395
358
330
328
328
334
355
341
331
327
334
337
341
338
409
369
360
351
351
359
371
384
391
411
415
403
368
338
326
329
322
337
344
329
314
324
333
320
333
284
578
363
340
344
354
361
374
391
417
424
428
425
370
350
328
343
354
368
346
352
346
352
363
352
332
548
366
369
361
368
369
379
389
410
421
425
412
371
345
333
326
336
351
338
319
332
337
333
347
335
310
502
375
338
346
354
354
373
390
407
417
416
386
352
331
331
341
347
357
329
333
326
331
337
339
324
394
368
351
331
337
339
347
360
363
378
382
376
334
308
289
291
292
312
295
285
290
298
296
300
303
312
403
334
310
313
318
339
350
360
383
387
385
353
321
302
305
311
322
339
322
323
318
327
333
330
333
335
449
363
346
346
354
356
370
384
405
409
410
379
342
321
315
326
336
329
314
312
310
313
313
320
295
476
327
330
328
332
335
342
363
381
381
405
391
359
332
321
320
334
341
336
325
320
335
329
334
334
307
484
373
334
348
349
367
374
393
408
411
410
379
349
328
327
319
343
350
331
330
329
329
329
343
330
400
377
359
349
355
356
369
380
406
413
416
412
385
346
340
341
346
367
344
337
339
331
340
337
342
298
548
364
339
336
341
348
359
381
388
403
409
377
338
320
315
323
332
343
332
327
320
336
336
341
340
344
410
354
341
342
348
360
369
380
401
404
404
379
339
318
318
318
337
341
334
322
326
320
332
319
305
483
321
328
324
331
340
349
355
374
399
384
378
344
317
316
302
314
323
319
310
304
315
316
318
324
305
461
351
327
332
340
348
356
375
401
398
400
361
331
316
317
320
338
336
329
318
320
323
327
333
290
564
347
341
348
353
357
374
390
409
414
427
403
378
337
335
338
351
352
340
335
339
334
338
344
326
429
348
346
338
335
342
353
360
380
389
389
374
343
303
291
293
303
316
308
296
303
303
303
308
307
349
380
336
317
325
332
339
358
367
388
396
394
360
319
309
308
317
332
317
306
310
317
319
316
326
282
556
356
333
335
339
349
362
375
400
407
412
384
347
332
325
338
347
345
328
332
330
333
335
334
289
591
353
3
