328
329
351
373
399
416
416
413
368
324
313
311
304
313
313
332
322
325
328
331
337
293
526
456
357
353
362
368
383
408
430
443
442
419
368
338
332
335
338
343
348
338
340
338
342
340
290
521
467
348
340
342
353
368
389
413
425
427
397
344
317
304
305
303
311
315
315
313
321
310
318
317
240
527
407
318
322
332
347
360
385
408
416
411
371
332
312
309
313
328
331
342
334
336
342
349
350
269
584
459
348
348
356
367
378
407
428
443
438
409
363
336
335
337
337
347
345
340
343
341
347
351
280
563
467
348
351
355
361
376
397
421
434
427
397
343
319
311
314
314
319
329
318
320
323
323
324
317
361
432
356
330
332
341
359
376
402
423
419
408
364
326
317
318
330
336
349
342
348
349
355
359
322
512
474
365
356
357
369
383
403
428
446
442
420
371
338
326
328
333
342
347
343
340
341
339
350
338
355
481
370
344
345
351
363
383
409
432
436
416
373
337
322
320
322
321
326
328
323
329
330
327
335
255
544
426
332
332
340
352
368
393
414
427
420
382
335
314
310
310
317
320
330
336
332
335
339
345
348
273
563
430
348
356
365
375
395
419
434
442
442
394
349
334
329
334
337
341
354
344
344
341
351
348
312
451
470
356
342
352
353
370
391
417
432
438
417
372
338
333
327
331
325
326
334
331
327
330
332
338
325
371
449
360
332
339
344
358
376
403
420
426
405
362
321
313
310
309
314
320
331
330
330
335
337
339
342
305
487
394
347
349
354
369
383
411
432
432
426
379
339
326
325
326
335
339
336
349
346
350
346
350
350
321
437
471
361
344
352
354
374
395
413
429
440
425
375
342
332
333
331
334
334
336
343
344
337
338
342
340
274
545
449
331
334
339
342
364
385
411
423
419
390
343
315
317
304
313
317
329
324
328
327
331
332
337
334
277
501
407
347
352
361
370
392
419
440
445
433
396
347
337
333
336
341
342
344
348
353
349
351
352
352
349
345
500
389
350
355
358
369
388
413
431
446
426
388
348
329
330
327
328
329
332
341
330
326
330
334
332
269
532
437
326
329
328
340
359
379
408
411
421
391
337
316
310
308
312
308
314
318
323
326
324
324
331
337
284
529
457
348
346
352
363
379
396
423
441
440
415
368
338
329
333
329
337
340
336
348
341
341
345
344
351
262
576
429
343
341
350
357
374
398
429
442
437
399
349
329
326
320
318
322
325
334
326
329
327
330
328
286
484
442
333
332
329
342
357
378
404
420
425
392
339
309
309
311
311
319
326
328
342
337
336
349
349
353
272
585
455
353
353
356
371
388
411
434
440
436
407
360
337
337
334
336
339
342
349
348
344
347
348
352
309
489
474
352
346
346
350
368
380
410
423
425
409
356
322
317
315
314
317
318
325
328
330
322
327
327
325
263
551
439
331
329
339
347
362
380
407
423
419
393
342
319
316
318
326
339
347
354
347
349
355
357
355
319
523
413
356
358
368
371
391
419
436
444
430
385
345
332
328
332
337
338
351
338
336
338
341
337
280
518
445
333
324
330
336
350
374
392
415
408
379
333
299
297
295
293
301
306
314
307
310
310
314
316
251
482
386
322
327
337
353
374
402
428
437
429
396
350
338
335
339
345
356
351
344
347
344
351
349
281
532
415
345
350
353
365
383
411
434
438
434
394
346
336
334
335
338
336
342
350
344
347
351
347
355
262
572
448
336
342
344
351
368
393
421
421
422
392
340
321
315
314
313
325
317
331
326
319
333
333
332
280
515
438
337
332
342
350
369
393
421
432
435
417
367
341
335
336
344
349
357
353
354
349
357
359
356
303
519
405
356
361
361
378
396
418
438
449
436
393
350
332
338
336
339
332
339
351
346
344
347
348
348
272
540
416
345
337
343
352
365
394
411
418
414
371
332
306
315
312
307
317
325
318
310
318
320
320
315
351
432
353
322
325
342
352
374
397
421
428
415
366
331
325
326
330
342
341
352
346
344
352
355
363
271
581
449
350
358
356
368
387
412
433
444
440
395
356
335
335
336
337
338
345
349
345
346
346
346
336
313
488
382
332
335
343
355
377
397
415
423
406
363
318
309
303
306
313
314
318
321
316
329
330
326
315
396
448
361
339
346
365
375
397
422
445
438
426
380
340
329
334
343
339
353
351
342
346
348
348
349
294
531
402
347
350
359
365
388
413
438
441
431
379
336
329
312
317
318
317
330
317
317
322
320
319
251
542
431
324
325
332
340
359
385
403
422
414
377
331
304
306
307
311
320
332
327
330
339
346
346
285
565
469
354
351
360
369
385
410
435
448
445
415
362
341
336
338
341
347
361
350
355
353
353
355
348
331
505
394
356
354
358
373
390
418
429
448
434
392
348
336
338
332
330
331
337
338
334
336
336
333
283
500
445
338
335
333
345
358
382
397
418
416
387
338
311
301
301
309
313
326
327
320
322
331
339
317
419
460
374
356
351
368
378
398
433
446
449
429
383
350
338
342
340
349
359
356
350
351
354
362
310
507
477
358
353
353
365
374
402
424
442
446
416
372
340
333
332
330
331
341
336
336
337
334
335
329
289
486
389
333
328
337
353
366
392
416
419
414
360
324
307
304
305
325
319
333
322
329
328
338
342
266
539
430
349
356
363
376
397
419
437
448
439
395
352
337
333
341
343
355
351
347
352
352
354
295
533
475
354
352
356
359
376
394
420
429
425
389
346
312
314
305
312
309
321
316
314
319
318
327
248
517
412
325
329
337
346
361
392
401
416
405
365
324
312
308
318
325
340
335
338
339
351
357
302
559
481
364
360
367
371
385
408
433
444
443
410
366
339
336
340
339
349
338
341
343
347
353
316
471
475
356
351
354
353
370
392
419
437
433
405
356
325
318
318
312
322
322
309
312
316
322
319
248
490
391
316
322
325
337
360
381
406
413
401
358
320
298
296
306
320
322
319
320
323
332
343
264
572
452
360
355
363
371
391
415
436
447
434
394
348
330
336
334
343
343
339
341
347
343
346
258
568
429
338
338
342
348
371
398
414
428
419
372
339
322
321
322
324
338
338
332
330
340
339
322
395
458
360
336
341
347
363
379
406
424
434
410
364
333
326
318
329
336
331
328
336
333
340
316
421
455
355
343
345
351
361
387
412
427
428
403
358
326
313
307
304
311
311
313
310
308
314
318
244
503
399
316
319
326
335
350
382
403
409
407
357
320
310
307
307
318
328
317
323
326
328
336
262
555
450
337
349
355
369
388
418
442
446
443
409
360
346
342
346
356
351
347
349
351
360
348
301
512
406
349
354
365
373
394
417
435
443
423
379
344
335
334
339
352
346
341
343
344
343
327
381
453
354
342
332
342
351
372
404
412
417
394
343
314
306
313
311
322
328
318
320
326
327
336
260
553
446
341
350
359
370
387
415
439
449
442
411
358
342
340
346
348
361
357
350
354
355
353
342
382
485
381
353
354
357
373
395
421
438
445
419
373
343
330
330
329
329
339
333
327
327
330
337
325
329
443
361
327
333
342
354
375
396
416
422
402
354
322
313
305
311
316
325
334
329
331
335
336
339
313
468
399
354
352
361
374
393
421
440
445
425
380
345
333
331
337
343
347
353
344
344
343
346
352
270
561
426
343
341
341
354
368
389
410
420
407
365
322
307
302
305
304
304
307
322
321
313
319
326
323
255
546
426
330
325
332
343
362
384
419
428
423
395
353
330
330
329
339
344
356
348
350
351
353
357
292
567
466
353
352
354
369
381
405
433
442
441
406
362
336
336
339
340
341
349
354
345
350
351
358
343
339
489
385
345
343
355
364
382
406
424
431
410
365
328
315
313
310
314
319
323
326
327
327
328
329
307
419
422
348
329
337
344
357
380
409
420
426
406
360
333
324
326
327
338
351
350
342
347
355
356
328
460
456
369
357
356
366
379
401
424
439
439
418
366
338
332
332
337
338
346
346
342
343
345
350
347
268
547
422
342
346
353
359
380
402
423
430
425
384
341
329
326
326
328
331
337
345
340
343
341
348
343
294
499
392
342
344
347
355
369
395
415
423
409
364
329
312
315
310
315
317
323
330
324
322
327
330
328
253
513
409
327
331
341
350
366
391
410
420
411
376
332
320
312
320
325
335
349
345
344
348
350
356
326
473
465
373
360
362
372
385
408
430
449
447
424
378
349
339
340
342
347
352
356
351
355
352
356
359
291
561
469
350
353
358
366
382
404
428
439
439
409
360
337
332
329
329
333
336
342
336
330
332
330
337
253
537
421
331
336
338
344
367
388
406
415
410
371
327
311
305
303
310
319
325
323
317
324
326
328
330
275
495
405
341
344
351
368
390
414
428
444
433
385
345
334
331
338
340
348
351
353
349
353
349
355
350
356
497
384
349
354
364
372
393
408
433
437
419
369
329
322
320
321
325
321
335
327
324
325
322
328
251
548
439
325
326
334
345
360
391
409
420
410
378
332
306
306
312
326
340
351
353
353
357
363
376
305
601
499
377
372
381
391
404
433
452
467
460
426
370
344
345
340
343
351
357
351
349
349
349
353
275
580
457
347
352
350
362
375
398
424
434
429
393
350
332
330
330
330
335
338
337
329
332
333
333
322
334
452
360
326
331
338
348
369
393
410
412
400
352
315
303
305
309
313
312
326
324
318
325
333
336
297
481
450
351
347
348
359
379
398
422
437
440
418
367
336
331
332
330
341
349
344
340
342
344
355
352
302
520
404
350
352
362
370
389
412
432
441
429
386
347
335
336
334
344
342
351
348
348
345
350
343
281
539
444
336
334
337
342
358
378
400
414
417
382
334
311
310
308
310
317
334
323
322
331
330
332
298
498
445
344
347
351
360
378
405
427
436
439
416
365
344
333
340
342
353
355
353
347
352
361
358
288
575
471
353
357
363
371
385
409
431
441
440
405
358
337
336
339
339
342
352
345
342
348
350
352
301
506
463
352
345
343
349
365
382
405
415
413
388
346
316
305
310
304
309
321
311
315
317
315
317
288
431
420
335
321
328
338
350
369
394
409
414
389
348
312
312
317
326
342
344
340
344
349
354
358
279
567
435
349
366
368
376
392
420
442
451
439
392
355
341
337
342
343
354
353
349
351
350
356
355
284
541
413
353
352
362
369
388
413
434
441
429
384
341
329
323
320
322
330
332
318
323
330
326
327
259
533
435
322
328
334
346
354
381
405
408
409
372
329
305
305
316
323
335
337
331
337
341
351
343
369
473
397
359
359
369
385
404
431
444
451
432
387
347
341
340
342
351
360
354
347
349
357
358
305
525
475
357
348
352
359
371
394
427
430
432
392
348
321
311
313
310
313
321
318
314
319
321
322
279
470
423
333
318
323
331
351
377
399
415
418
386
336
311
303
305
320
330
337
333
341
343
350
360
291
579
475
365
365
368
381
395
422
445
455
448
417
367
346
340
337
346
356
354
346
347
351
354
357
294
517
398
348
350
354
368
384
405
423
428
415
366
331
318
312
310
311
320
320
309
315
319
320
311
274
451
377
314
321
328
342
360
384
400
406
396
346
316
301
299
310
349
310
305
313
319
322
326
257
559
439
329
318
335
335
356
391
395
409
399
373
316
312
298
305
330
319
315
308
309
302
306
245
561
402
338
357
369
400
425
454
482
485
477
422
387
374
370
381
392
393
391
395
391
383
391
307
640
485
377
383
392
385
410
434
458
463
462
411
352
338
328
337
329
340
347
344
332
337
337
342
283
555
473
346
342
347
354
374
394
418
438
433
400
349
320
317
319
323
325
339
332
334
339
337
339
326
368
462
359
324
338
338
351
373
403
419
419
404
356
321
317
316
317
322
314
328
332
324
324
331
329
323
309
464
363
323
326
335
344
367
393
409
425
407
367
329
319
322
318
328
335
336
351
345
347
351
353
354
275
561
439
352
360
357
368
387
406
428
437
437
396
349
332
330
329
332
331
340
343
340
338
344
345
349
280
521
416
345
351
355
364
379
409
424
438
428
385
340
328
329
325
325
335
330
336
346
340
340
339
338
345
317
481
391
346
350
351
366
381
411
426
439
426
386
349
334
326
328
335
338
338
340
341
346
352
347
350
348
348
306
507
463
348
345
349
360
372
396
419
435
433
412
367
334
328
324
328
331
334
336
335
337
348
344
351
347
347
348
322
482
390
346
349
356
366
382
410
429
436
427
382
338
330
325
325
331
335
333
335
346
340
342
344
344
347
302
486
397
343
348
352
367
378
407
426
431
424
376
336
327
324
325
326
331
331
328
343
327
335
334
336
339
269
491
391
328
332
342
352
370
398
422
425
421
381
342
330
327
332
329
339
342
349
345
341
346
350
351
274
560
459
343
349
352
361
374
399
424
436
434
398
351
331
332
333
329
334
337
345
334
331
338
334
335
263
545
432
335
327
338
343
359
381
402
420
415
376
331
319
308
318
320
326
335
337
345
342
345
351
351
322
465
463
367
354
359
364
382
411
427
443
447
427
380
350
337
343
339
344
347
351
343
347
340
342
342
281
536
443
335
339
340
345
364
384
404
416
411
377
340
310
301
301
299
306
315
320
317
315
327
330
331
302
468
396
347
355
363
371
389
419
443
440
430
389
348
336
329
337
343
343
354
345
347
347
351
350
279
542
416
347
352
355
362
380
407
422
430
414
371
333
314
307
309
312
313
323
312
307
317
317
315
283
432
362
315
316
329
345
365
395
410
422
413
373
342
331
335
335
346
357
349
341
345
345
346
300
506
467
346
345
349
355
371
391
418
429
426
408
358
327
326
327
329
331
344
333
335
334
338
346
259
589
444
339
342
348
356
374
393
425
428
427
394
346
327
322
326
327
330
339
334
335
339
340
343
288
528
465
346
343
348
359
376
400
420
432
436
419
369
346
337
336
338
336
339
341
329
329
328
328
308
405
426
345
329
328
339
352
369
390
402
407
390
341
315
302
304
304
315
325
317
313
309
318
322
263
548
442
334
342
349
365
387
415
441
443
447
403
357
332
329
332
334
352
346
340
343
346
350
317
502
473
364
353
359
358
378
397
420
436
439
411
357
330
324
320
325
326
339
330
330
335
337
341
257
568
416
336
336
344
356
372
396
421
431
422
382
341
329
329
329
336
338
337
338
337
341
342
267
545
419
345
352
354
363
382
407
419
426
416
369
327
311
310
309
314
321
315
311
321
321
322
321
246
530
407
315
323
323
341
356
378
393
403
402
371
331
305
305
313
317
325
331
339
339
337
344
352
349
323
479
402
353
359
367
382
398
427
443
450
440
395
356
345
344
345
347
347
363
354
354
355
354
357
354
345
494
390
353
357
362
374
387
416
430
436
429
385
345
337
332
332
330
331
336
345
341
331
333
341
329
279
529
445
332
332
340
344
365
380
405
416
417
390
339
311
316
311
316
323
322
339
341
338
340
348
356
323
448
456
372
353
355
363
377
398
423
434
434
416
365
335
321
324
326
332
332
342
333
329
330
337
333
273
528
452
327
325
319
323
339
358
373
385
381
350
301
278
276
271
274
275
273
288
284
283
288
292
301
266
416
396
321
308
312
331
342
370
400
414
424
413
360
336
331
336
336
346
350
360
360
354
357
363
366
324
495
476
369
361
361
374
389
414
441
453
456
428
382
350
342
335
332
337
333
339
332
322
324
328
325
258
525
432
325
326
330
342
352
377
403
418
417
385
332
314
305
310
321
323
341
336
336
344
352
361
297
585
478
375
372
377
388
406
428
453
464
463
430
382
361
354
354
358
364
373
365
366
367
366
366
284
586
440
370
376
370
379
398
417
429
446
436
382
341
334
320
325
324
322
331
318
327
321
326
322
251
505
407
324
326
329
339
356
384
403
410
411
366
331
318
316
325
336
339
344
338
341
342
348
344
322
486
390
354
353
364
371
392
419
436
435
426
376
335
330
328
331
331
344
345
347
344
344
348
349
282
527
413
348
351
356
365
385
409
430
440
426
385
340
325
318
324
321
322
325
326
326
323
327
326
325
262
492
387
326
325
334
347
365
388
410
412
409
372
327
319
314
318
324
337
344
338
340
345
346
357
276
549
432
350
360
362
375
398
419
439
444
435
393
350
336
332
339
343
359
352
346
347
354
358
347
360
497
388
356
354
358
377
387
412
430
426
405
362
320
311
310
312
315
322
322
316
320
323
322
305
405
411
339
317
327
341
360
377
409
420
425
404
361
332
327
330
336
346
362
357
352
352
358
359
322
515
477
366
363
364
373
387
412
437
448
455
423
374
350
340
341
345
351
365
353
351
350
348
349
300
483
445
335
323
326
332
346
368
390
404
402
371
322
293
283
286
286
289
291
298
286
288
293
293
294
254
424
352
301
307
311
328
347
372
390
394
381
337
301
288
284
293
304
309
320
308
304
312
313
316
261
515
434
319
322
324
338
351
374
397
411
413
384
334
307
307
307
307
312
320
326
324
325
328
334
333
277
494
402
332
344
350
365
389
416
433
447
437
396
355
345
341
349
357
364
368
365
368
369
371
374
314
550
435
378
378
386
395
412
443
465
468
457
413
370
372
369
365
364
366
374
367
359
356
359
350
298
536
461
359
354
365
374
394
424
448
465
460
434
384
348
343
339
334
339
345
348
344
342
339
346
328
348
468
346
324
325
327
335
354
375
388
390
370
317
287
279
277
273
279
287
296
291
293
296
300
303
265
434
373
311
315
329
339
362
386
406
410
400
358
322
308
304
312
309
323
326
319
320
326
329
329
286
471
386
333
342
340
350
373
397
407
415
402
362
316
306
307
309
313
321
333
328
336
343
346
355
286
529
437
359
360
371
385
402
427
452
456
453
412
373
358
354
358
364
373
369
365
364
367
374
363
389
485
402
371
373
378
392
409
434
447
451
436
391
359
345
336
338
339
338
322
321
321
320
322
243
530
404
305
304
311
317
330
354
372
376
379
336
285
268
267
268
279
284
287
282
288
289
300
295
300
420
353
313
316
329
345
361
387
402
411
397
344
314
310
312
316
330
329
330
328
334
338
346
268
566
433
351
357
364
376
397
423
444
451
446
411
362
349
342
346
347
358
357
349
355
359
361
347
415
458
390
361
370
380
396
411
442
455
455
429
379
354
345
347
353
365
370
365
363
369
373
380
302
580
460
366
379
381
390
407
431
451
459
447
408
364
352
350
352
355
364
357
354
362
360
363
314
522
463
357
347
349
360
369
391
412
427
424
394
340
315
307
310
309
321
317
318
319
321
321
316
292
436
376
327
335
348
358
380
411
425
433
417
374
339
327
322
327
338
350
335
337
342
345
347
280
557
454
346
354
347
362
380
404
428
440
444
407
360
341
333
327
327
331
335
323
325
323
325
325
269
466
388
327
330
338
352
371
395
414
424
411
349
317
309
308
310
322
337
333
338
339
348
354
293
570
465
363
362
371
383
401
422
445
456
451
415
367
352
344
347
356
355
357
352
351
351
353
302
530
466
356
358
360
364
380
396
422
431
427
391
344
323
319
312
318
317
331
326
318
325
327
331
260
535
434
322
327
339
349
369
392
413
426
428
396
355
338
337
338
347
356
362
356
355
358
360
362
324
505
407
357
362
367
380
397
421
440
454
432
378
346
341
340
344
344
350
356
343
349
348
352
352
275
568
439
353
358
351
359
382
398
427
434
423
388
338
322
326
321
325
325
335
337
334
334
340
339
339
318
449
387
346
352
358
368
388
414
436
442
426
387
352
340
336
343
345
351
359
352
350
349
356
358
281
573
451
353
353
358
365
382
409
430
442
434
394
351
338
336
334
339
344
358
353
345
350
352
351
312
477
457
354
350
349
352
367
387
412
425
424
400
349
325
314
316
317
319
333
337
335
338
340
347
337
405
448
380
357
362
367
380
402
425
436
442
420
370
341
332
332
332
335
343
335
334
334
337
342
338
300
495
389
344
344
352
362
381
402
423
432
420
377
339
332
327
328
334
334
344
338
335
338
338
340
304
467
450
352
343
346
353
367
391
415
433
431
409
357
334
322
322
323
327
338
335
327
334
337
343
342
329
447
389
349
348
359
373
394
418
431
436
421
375
342
330
332
335
336
351
345
343
343
342
345
344
325
467
391
351
353
357
371
388
412
428
434
421
376
339
330
328
331
335
348
340
336
338
342
345
345
328
492
385
353
356
358
367
387
413
424
436
421
381
339
333
332
334
336
346
335
336
342
338
336
294
500
444
344
346
351
367
379
405
420
436
432
400
359
335
328
331
339
353
342
339
340
343
345
335
368
449
375
347
348
360
374
397
418
432
438
417
372
342
335
339
348
350
343
343
341
342
347
300
510
463
350
351
353
363
378
401
422
430
430
399
354
331
328
329
332
344
338
333
334
336
335
333
316
469
376
341
343
348
362
382
406
422
425
407
364
331
321
321
321
331
337
331
334
335
336
336
262
509
403
334
337
343
349
372
394
418
427
418
380
344
331
330
336
341
335
338
339
338
341
271
538
433
345
345
352
359
377
398
417
433
428
390
352
337
334
332
343
335
329
329
333
333
277
501
435
337
333
341
346
362
384
405
409
406
379
339
316
312
320
334
325
322
326
329
338
319
434
436
373
358
362
371
386
406
427
443
440
422
379
351
345
350
363
356
352
352
354
356
349
355
468
387
357
358
362
373
393
415
429
432
414
370
341
329
331
339
345
337
335
340
343
345
277
534
444
342
344
347
352
370
396
414
425
420
389
348
328
325
320
323
326
327
320
322
327
324
320
331
427
356
327
333
336
348
370
387
405
412
392
349
314
306
307
309
321
329
320
323
327
333
339
276
551
454
352
354
363
374
393
413
434
443
438
406
364
344
337
339
348
358
348
347
349
348
351
290
535
465
354
352
358
363
377
400
425
436
429
397
351
335
327
336
337
342
351
344
342
346
346
352
275
560
452
351
351
352
362
374
393
418
424
419
386
339
324
316
315
317
323
326
320
325
321
327
326
259
491
398
326
330
334
347
367
394
408
419
406
372
335
319
326
329
336
344
356
351
347
355
352
359
293
563
471
358
361
366
373
386
410
429
443
437
411
362
341
337
338
340
347
357
350
348
350
354
356
336
419
473
367
353
355
358
371
396
416
433
434
412
371
342
335
327
329
334
329
335
341
338
336
343
344
335
307
465
382
333
335
344
357
376
401
416
420
405
360
323
312
312
314
321
327
342
335
336
340
354
354
283
562
458
356
354
360
371
391
412
435
443
443
403
361
341
338
339
340
352
355
344
346
349
350
351
273
569
445
346
347
351
363
379
400
424
435
422
386
343
322
318
313
314
322
325
320
314
321
318
324
251
527
424
323
317
328
331
349
372
394
402
400
361
318
302
299
301
309
316
328
331
327
332
337
345
322
455
456
365
348
352
362
379
398
423
434
440
417
370
339
334
332
337
338
354
351
345
350
349
354
317
469
465
358
348
353
362
373
395
418
431
430
404
357
333
326
319
320
320
325
326
328
326
330
334
323
359
432
358
328
332
341
350
375
394
410
419
397
350
320
314
317
319
328
345
337
336
340
342
342
295
522
454
345
344
350
357
371
394
415
432
426
397
351
327
322
325
329
336
345
335
337
337
341
344
270
556
451
344
344
345
360
374
396
417
429
428
394
346
327
325
326
326
330
343
336
336
333
337
341
286
522
449
346
345
351
356
375
398
423
433
434
403
361
338
333
335
338
349
364
350
347
350
352
352
295
541
461
348
344
350
359
374
396
418
430
423
391
350
326
322
324
328
334
343
338
339
341
339
339
286
517
448
339
332
336
341
353
376
402
406
409
376
331
303
299
295
301
313
321
306
303
308
308
315
259
515
422
325
325
332
346
364
386
410
424
421
393
352
328
320
331
330
344
351
347
346
353
355
361
277
579
452
350
354
361
367
386
407
428
437
433
395
352
334
331
334
338
344
349
344
341
342
347
352
275
565
446
350
353
360
372
382
404
422
428
420
387
336
320
318
319
319
326
333
327
324
320
322
324
248
520
419
324
327
339
348
366
386
402
413
402
367
329
316
311
320
336
349
348
343
350
359
362
314
545
476
368
363
370
380
396
422
446
453
454
420
374
352
346
347
352
363
352
352
353
353
357
310
508
472
359
354
358
364
378
399
422
436
437
410
361
338
335
329
336
339
343
342
330
331
343
345
265
536
428
335
342
342
352
367
392
407
415
408
368
326
310
309
312
316
318
327
317
325
322
328
332
255
525
422
339
343
353
363
388
410
431
440
429
391
352
340
339
340
344
357
354
350
355
355
355
355
293
525
419
356
359
366
373
395
419
438
442
428
387
353
338
335
339
341
340
346
352
345
346
348
351
345
333
477
378
342
346
353
363
386
407
428
429
416
371
337
324
324
326
320
327
330
323
323
327
328
331
254
522
415
329
330
334
344
363
385
410
409
404
363
321
308
306
314
322
326
335
339
340
343
347
351
350
321
485
398
351
357
365
372
389
421
434
437
421
379
342
332
330
329
333
343
351
343
340
343
346
351
305
491
457
350
345
350
356
373
393
420
430
430
404
361
335
328
326
328
326
331
339
331
328
328
336
333
255
540
425
329
329
335
346
364
386
404
417
413
369
330
312
299
307
310
317
323
317
321
323
330
334
263
555
446
343
347
355
368
384
411
433
441
431
396
358
334
336
344
345
358
361
355
359
359
357
365
280
585
447
358
359
365
377
393
417
439
446
438
398
357
341
340
338
336
338
351
339
338
342
340
338
279
521
442
336
332
339
346
366
381
411
418
417
381
330
318
310
305
320
323
334
326
332
328
335
340
321
411
447
371
347
358
364
378
402
424
438
436
416
368
340
337
333
337
340
357
349
344
342
346
349
347
323
495
387
348
347
353
365
383
408
425
435
419
374
339
326
323
323
327
327
333
326
326
324
330
328
263
494
399
328
332
335
353
363
391
413
413
401
357
322
308
306
312
318
327
335
326
329
336
340
343
273
554
444
350
354
361
372
386
410
431
442
430
391
351
337
335
337
342
347
357
346
347
347
350
356
272
577
448
348
349
352
365
377
406
434
437
430
390
349
329
323
325
323
326
333
323
321
324
323
327
249
534
420
321
324
331
341
356
385
408
415
406
371
324
303
302
305
317
327
334
324
331
331
338
342
304
493
406
356
361
367
384
401
424
444
448
429
380
346
339
336
340
347
355
344
345
347
349
351
275
569
456
346
345
354
361
376
398
427
439
434
392
345
329
323
322
324
318
327
319
321
324
325
328
244
527
415
317
327
327
332
352
383
406
410
404
358
315
300
299
306
313
332
327
322
332
337
344
335
367
461
384
358
357
367
382
403
429
446
448
424
378
349
340
342
346
356
363
355
348
353
351
361
291
559
470
355
351
355
365
384
404
426
438
433
395
347
330
320
317
318
320
325
332
323
324
330
328
318
370
432
352
320
329
333
352
366
394
410
416
392
344
318
311
314
320
329
342
343
335
338
342
343
332
374
462
372
345
347
355
366
388
412
430
432
408
362
331
321
321
325
330
334
338
332
335
337
340
334
292
495
386
335
334
337
353
370
398
415
424
407
367
330
322
318
317
322
320
326
332
323
324
328
323
324
244
536
414
326
326
330
343
354
380
402
417
403
369
327
305
306
313
319
321
327
320
321
324
330
334
258
544
431
349
349
361
374
391
419
443
451
437
398
352
342
337
341
347
354
355
347
350
349
350
354
270
567
431
349
352
357
364
385
408
431
443
431
384
343
331
331
329
335
336
353
345
344
346
349
353
308
489
466
350
346
351
361
372
395
422
439
437
410
361
334
327
325
327
325
329
341
335
337
336
337
339
263
542
437
330
329
340
344
361
388
408
416
416
377
334
309
306
305
312
328
334
323
323
331
332
342
267
569
448
349
361
368
373
398
421
441
451
440
405
357
344
342
340
346
363
355
349
351
355
358
325
472
480
364
352
356
362
373
395
422
437
442
407
362
332
326
319
318
319
323
315
309
310
315
315
235
526
412
312
310
324
330
349
373
391
401
392
351
311
296
290
296
304
318
320
313
318
321
335
326
363
450
380
350
354
361
377
396
424
441
441
423
371
343
336
338
345
349
353
352
352
353
355
362
276
586
453
359
359
364
374
390
414
438
446
439
395
354
339
341
338
341
338
348
339
337
340
341
338
262
558
433
336
330
340
349
364
392
409
418
411
374
324
314
308
311
315
314
323
326
321
328
331
335
335
329
463
388
347
353
361
372
395
422
436
440
424
381
344
335
333
336
344
348
355
347
349
348
350
356
268
587
450
349
351
353
363
379
402
427
441
426
397
353
335
332
330
336
333
337
342
335
334
337
335
331
311
464
374
331
338
344
354
374
398
416
423
406
362
324
311
313
310
315
328
337
328
329
332
342
339
273
570
455
351
357
365
373
391
413
437
447
437
401
355
340
337
334
343
349
356
351
346
347
352
352
326
439
477
367
352
352
358
369
394
417
429
438
412
368
335
329
324
324
327
323
327
333
323
321
327
329
328
249
550
423
330
331
333
347
360
391
408
423
409
382
330
310
305
306
313
320
333
326
324
326
333
341
293
533
458
357
352
360
370
381
410
432
440
441
409
361
339
336
335
339
346
354
345
340
346
344
350
275
582
457
345
346
350
363
379
399
424
435
434
395
351
331
328
331
332
335
346
345
336
338
338
338
308
433
446
339
328
331
338
353
375
400
413
418
389
336
310
304
299
300
309
327
317
320
314
316
321
299
440
427
343
330
340
347
373
395
422
437
442
417
369
338
338
336
340
347
360
348
346
349
355
357
289
574
472
355
353
362
366
382
406
431
442
437
401
356
335
330
334
338
342
351
345
347
346
353
355
277
576
454
339
341
347
352
367
386
410
420
414
376
329
309
310
309
308
321
325
320
318
319
321
326
254
547
433
327
329
333
345
361
389
416
421
420
388
346
327
328
333
342
360
347
344
349
346
352
327
453
468
362
351
356
361
371
390
417
427
429
400
354
329
318
317
322
331
333
326
327
327
334
334
263
521
399
331
339
343
354
371
393
410
415
410
362
323
308
306
308
308
317
323
315
317
320
326
327
252
534
417
330
333
337
355
369
402
417
426
421
381
341
322
320
325
330
348
349
341
351
355
358
359
305
521
418
355
360
368
376
391
420
435
445
434
384
343
330
332
336
341
353
344
340
344
341
348
322
432
471
368
349
351
357
371
385
417
421
428
396
352
320
311
302
304
310
317
309
306
314
312
312
244
521
409
316
319
323
337
356
378
400
413
404
367
327
313
313
318
330
346
337
338
344
343
351
308
514
462
365
351
359
366
383
403
426
442
443
413
367
344
336
338
343
348
350
346
339
343
345
348
279
569
451
353
349
350
366
376
399
422
436
425
394
345
322
319
319
315
325
330
322
331
322
328
324
250
541
420
330
332
341
349
364
387
408
418
411
371
328
317
314
326
336
350
340
344
340
349
354
305
523
469
352
347
357
361
380
402
428
440
436
408
361
332
329
329
334
343
340
335
334
336
339
336
305
489
372
329
326
328
338
356
377
395
394
379
332
293
283
277
278
276
290
283
274
281
285
284
273
349
382
309
286
287
301
320
345
368
386
391
375
331
303
299
301
310
321
332
322
324
330
335
338
292
515
459
349
342
348
357
373
398
424
433
436
404
358
337
330
336
336
342
345
348
341
346
346
349
349
278
538
417
347
354
360
370
387
417
445
446
437
398
353
338
337
331
335
337
337
349
347
344
348
351
352
343
363
462
385
348
352
358
372
391
418
430
435
420
376
331
313
315
318
321
325
335
337
335
342
347
349
342
363
472
386
349
352
360
369
389
413
431
435
419
373
340
332
331
336
339
348
352
345
349
350
356
355
275
582
435
352
357
356
365
380
403
425
437
422
386
340
327
329
325
327
338
345
339
339
340
344
342
258
550
433
344
346
355
367
392
415
441
449
436
402
361
343
340
345
350
356
364
361
354
361
362
362
295
569
477
361
358
359
371
384
403
428
439
438
405
356
331
320
320
321
329
326
324
318
321
320
324
272
471
381
320
331
336
345
363
386
405
408
394
345
313
299
302
309
319
333
327
331
332
344
348
279
574
462
354
354
364
371
386
415
432
443
436
401
354
340
331
334
340
347
343
340
345
346
354
269
561
424
348
350
355
367
384
405
426
434
421
380
345
330
336
339
346
343
335
339
338
339
334
308
469
379
335
340
346
355
377
404
418
423
408
358
325
314
313
321
331
329
322
324
332
335
313
434
442
364
348
358
368
387
410
432
446
444
419
372
343
337
338
351
359
351
349
352
352
355
287
574
472
352
359
366
372
386
411
432
453
445
404
356
338
334
327
329
331
336
330
329
337
335
333
308
459
375
332
335
342
357
376
398
415
420
407
359
327
311
313
318
334
347
336
338
344
350
353
286
579
462
355
355
363
369
385
406
427
437
432
400
356
340
333
332
334
343
338
334
335
341
345
311
469
459
356
345
345
352
371
390
417
430
432
407
367
339
329
333
334
342
351
343
344
345
350
348
272
540
423
351
354
362
367
389
406
425
435
421
374
338
320
316
314
320
318
328
328
319
321
328
329
256
540
431
326
325
331
344
361
381
404
412
406
377
331
306
304
305
315
325
337
331
331
335
346
348
270
554
429
346
349
355
367
384
409
427
434
418
380
342
325
324
329
331
338
349
339
341
341
347
344
267
542
412
341
347
350
363
377
407
426
433
424
381
337
322
317
318
319
324
338
326
323
329
332
329
308
434
434
345
333
337
354
360
380
401
418
426
399
354
327
320
319
329
335
341
353
352
350
352
358
363
280
588
459
357
358
365
371
390
418
438
447
436
400
358
341
340
344
348
351
364
356
354
352
356
357
315
492
465
353
345
353
357
373
390
415
431
428
403
352
326
316
318
319
327
337
339
337
331
338
341
341
271
536
424
348
353
362
375
397
420
438
445
437
398
352
337
334
339
342
348
356
349
346
348
348
353
278
573
460
347
345
352
355
371
395
422
428
429
398
354
326
325
323
321
328
335
328
326
324
327
327
271
511
432
326
326
330
335
353
376
401
411
410
380
335
305
303
299
309
313
326
324
318
322
328
338
292
523
454
348
346
350
360
376
399
422
432
431
404
356
334
329
332
339
346
356
351
340
346
359
342
288
551
469
349
349
356
361
376
402
426
434
431
398
354
324
325
318
312
315
329
319
320
321
324
324
307
364
423
345
314
320
332
342
364
389
404
399
385
338
305
297
295
305
311
317
328
324
323
323
327
332
292
490
446
343
329
336
346
361
384
410
418
424
397
348
321
317
316
320
328
338
334
333
336
338
340
308
469
464
350
342
350
358
364
388
412
427
425
401
353
320
318
312
316
324
333
327
326
333
329
337
309
422
444
354
335
337
351
361
384
408
428
429
408
359
332
323
331
337
349
360
356
350
356
359
363
292
593
481
364
363
370
379
398
422
443
455
450
415
368
345
341
344
346
349
360
356
352
353
355
360
316
501
481
362
353
356
366
381
404
427
440
441
414
362
332
327
321
321
322
332
337
331
335
334
337
337
254
553
424
331
329
340
351
368
398
414
421
411
378
335
317
312
320
323
340
339
340
343
346
348
348
269
556
429
347
348
359
365
387
416
433
440
428
385
345
332
331
331
339
350
353
344
350
352
357
355
275
620
468
351
356
363
366
390
401
435
438
429
395
341
321
314
320
318
328
325
316
323
325
329
327
249
516
389
321
321
322
331
346
367
387
394
379
330
288
274
270
267
268
277
271
262
267
261
271
215
447
368
268
260
269
275
295
320
342
357
352
327
287
265
263
268
276
293
288
283
288
290
297
280
377
415
326
310
318
328
348
370
395
413
416
398
354
328
326
331
340
356
353
350
356
364
370
347
487
493
387
376
382
390
405
430
452
463
465
440
395
369
364
369
375
383
381
389
390
389
387
306
597
467
379
383
387
400
419
440
463
466
454
415
370
360
349
354
362
353
352
345
350
350
308
519
438
349
346
350
360
379
399
419
427
425
396
354
331
327
331
346
340
333
331
331
331
305
433
440
349
335
346
352
369
396
417
425
428
402
352
330
327
331
343
335
333
335
341
344
320
451
452
357
344
349
359
367
390
416
427
429
401
359
336
327
329
347
339
340
340
346
351
322
477
463
360
356
356
367
383
407
431
447
443
417
369
349
341
343
348
359
361
354
356
354
354
352
278
536
419
352
355
362
373
390
415
432
441
430
388
353
340
338
339
342
345
351
346
350
347
350
353
281
554
448
346
345
350
361
372
389
413
419
417
384
337
323
316
313
315
312
324
327
319
326
332
330
310
413
425
351
329
336
346
358
383
406
422
422
403
363
332
322
328
331
350
355
346
348
353
351
340
370
473
389
349
359
367
381
402
428
442
443
412
368
339
334
334
340
346
349
340
343
345
349
346
308
494
389
345
344
350
358
375
402
426
424
410
368
332
320
316
318
321
328
328
339
333
336
331
335
337
256
551
428
331
329
339
345
366
390
408
421
410
373
334
309
307
310
313
319
321
330
333
336
341
349
350
304
526
458
362
354
363
374
384
409
431
446
443
414
367
341
335
334
340
341
345
345
356
349
350
355
358
359
275
583
455
350
352
360
367
380
405
423
428
419
381
331
313
304
304
303
303
307
309
295
300
301
303
296
248
426
352
292
294
303
311
332
354
374
379
363
318
281
272
271
279
288
298
302
307
320
314
314
320
321
322
304
475
375
324
327
335
345
368
392
413
421
406
364
330
322
321
327
332
336
340
352
347
349
358
354
361
285
585
448
350
347
355
366
381
406
428
439
433
389
349
329
329
331
332
338
337
351
348
345
348
345
347
306
513
453
363
355
362
376
391
415
451
458
464
434
390
363
358
359
360
362
369
372
375
370
370
372
372
371
288
607
449
365
365
369
380
399
422
441
449
438
392
350
332
317
317
318
317
319
324
317
322
318
317
318
249
531
422
314
316
328
337
352
374
393
403
398
369
319
303
298
298
315
316
330
334
327
332
337
340
340
318
486
390
340
343
349
359
379
401
417
420
404
358
320
309
310
308
311
319
326
320
315
314
315
315
247
505
419
296
293
303
315
318
348
374
385
384
350
300
282
276
276
275
285
286
292
285
288
293
301
298
280
430
367
312
326
335
355
378
410
431
435
426
380
346
337
339
346
354
368
365
356
361
360
370
345
456
497
383
376
366
378
394
417
442
454
461
436
387
357
352
352
355
359
367
366
363
368
372
378
340
503
485
369
358
359
367
378
403
420
432
434
408
356
328
320
315
318
330
337
330
324
331
328
331
282
540
451
347
346
358
372
389
409
438
449
445
416
366
341
335
339
342
357
346
346
347
350
353
324
454
474
361
342
339
352
363
385
415
427
430
408
363
326
321
318
316
325
331
329
326
326
331
329
261
534
438
328
331
338
341
354
375
402
407
406
372
327
304
298
304
303
318
307
306
316
318
320
309
357
422
352
324
328
339
358
382
400
419
427
414
361
335
334
335
345
365
361
363
359
363
371
361
316
535
427
365
371
377
385
408
432
455
459
431
390
356
346
341
350
347
361
352
353
356
363
359
356
317
511
408
364
361
371
384
401
430
444
450
441
396
363
350
350
351
344
353
354
347
346
349
350
343
273
539
420
339
340
347
357
371
400
413
425
415
375
327
315
312
313
320
336
328
330
330
333
339
340
281
503
412
350
353
363
372
390
416
430
439
424
383
347
332
332
331
340
351
349
342
347
345
350
352
272
553
425
350
357
361
368
396
414
436
443
436
394
358
343
336
341
344
346
359
347
343
347
344
345
327
406
448
363
341
339
348
368
379
407
423
421
400
360
321
314
315
318
321
330
339
335
333
339
347
352
316
497
463
366
359
364
369
382
405
426
440
440
419
372
345
338
337
340
346
350
361
353
351
353
360
361
314
530
472
355
350
352
355
367
384
414
417
425
393
351
326
312
316
316
316
323
328
319
323
319
324
323
301
437
376
329
333
339
354
376
397
411
419
404
363
326
315
315
320
325
324
327
316
314
314
308
299
288
439
337
295
296
293
306
324
344
368
360
344
300
267
250
253
251
261
277
274
268
268
279
271
248
349
405
300
277
288
297
314
344
379
380
383
367
330
308
296
307
307
320
320
321
333
336
344
329
270
535
454
343
347
349
360
374
411
419
425
428
396
351
336
341
337
358
359
356
361
364
370
373
379
308
594
501
391
391
401
418
432
456
480
493
482
448
400
381
385
380
383
386
398
389
397
391
386
392
327
574
520
387
378
385
386
404
430
444
462
457
426
380
349
346
342
347
338
345
347
341
347
344
344
301
477
467
347
337
343
349
361
384
404
414
424
393
341
314
311
308
306
311
323
317
315
324
323
325
321
379
428
360
326
328
339
354
379
393
414
416
393
354
319
316
316
328
339
359
345
336
349
353
365
276
575
450
350
349
355
365
386
411
434
445
435
390
350
343
343
354
332
358
341
347
347
347
352
270
592
459
356
372
351
358
372
397
419
425
422
384
340
327
324
325
326
327
321
332
332
336
336
300
487
378
335
343
348
360
375
397
417
424
407
374
333
329
327
335
337
332
335
336
337
340
324
389
455
362
342
346
352
360
386
410
417
422
412
358
332
322
324
326
341
323
331
322
331
332
275
511
445
338
329
337
347
362
391
410
420
416
385
345
329
322
325
334
339
331
336
333
338
332
280
494
399
337
341
345
358
379
403
419
427
409
373
341
329
326
334
336
338
331
334
340
342
271
501
410
344
346
353
368
377
401
425
429
419
381
352
336
330
342
355
331
335
334
329
336
281
491
434
337
338
335
347
363
382
409
414
414
384
344
321
313
318
324
336
325
329
333
331
330
266
546
443
345
355
365
377
396
423
451
463
442
410
365
345
345
346
355
352
352
354
363
363
290
599
481
358
359
362
369
386
405
434
439
439
399
355
340
333
330
340
337
335
326
333
336
304
446
477
337
323
330
336
341
363
388
392
393
364
319
288
275
276
269
266
275
261
264
254
255
251
158
418
296
220
222
226
232
253
272
295
292
292
251
214
196
198
194
190
202
208
207
212
217
221
200
307
326
255
245
253
275
291
317
349
363
377
351
319
291
285
297
307
332
334
331
340
348
363
338
476
481
401
389
401
411
434
456
479
494
493
469
426
396
395
400
409
420
414
417
422
427
428
357
651
538
425
428
436
445
459
481
505
512
502
472
429
411
403
407
400
393
396
393
379
391
389
374
412
491
405
378
375
382
398
410
434
451
444
423
384
346
328
330
333
343
342
331
336
342
341
342
276
512
425
347
354
358
376
392
424
434
441
424
386
348
330
327
335
341
352
348
342
347
349
354
285
560
471
344
344
346
363
374
398
418
432
428
394
343
326
329
324
332
327
343
343
333
334
336
342
270
544
448
341
344
356
358
371
397
420
430
422
392
346
326
320
322
323
331
344
346
347
343
351
357
341
408
472
394
368
377
380
394
418
444
455
450
430
384
355
340
343
344
353
364
356
358
349
358
361
297
546
478
356
361
358
366
382
403
429
446
444
410
355
340
332
328
327
335
331
322
318
331
332
334
257
543
429
333
334
340
347
371
393
422
425
423
378
334
317
308
319
329
333
340
336
341
338
350
351
267
577
471
363
362
363
376
395
409
437
456
437
400
352
340
334
338
342
347
352
359
347
360
353
352
348
326
518
403
360
362
376
371
394
419
439
439
418
374
340
337
337
323
328
340
328
333
346
346
351
354
349
324
395
478
354
337
341
345
354
380
410
420
431
401
354
326
309
311
310
312
317
315
340
328
336
334
331
330
293
481
399
343
352
358
382
397
424
430
442
418
374
341
328
329
337
341
350
349
343
343
341
339
345
272
571
475
350
336
343
344
368
382
414
429
421
391
345
329
327
312
317
318
316
327
322
329
326
334
338
316
427
462
342
326
339
353
369
389
416
439
442
408
368
335
318
319
320
329
340
348
336
348
349
355
358
283
593
462
365
356
374
371
391
417
442
445
439
396
354
344
344
346
347
351
348
356
360
356
353
357
357
359
281
584
426
351
360
351
354
372
399
416
431
419
387
331
317
320
315
316
325
321
331
322
323
336
321
334
286
471
395
336
342
346
354
384
410
421
432
420
377
346
339
336
335
346
351
352
363
354
355
356
363
367
278
600
459
357
357
359
374
387
412
429
438
433
399
353
337
339
338
336
336
344
350
340
345
348
347
347
296
511
475
350
349
343
358
371
391
413
432
426
394
353
324
318
310
321
316
317
327
340
325
328
331
331
328
266
497
404
339
330
339
360
375
395
416
425
419
371
336
320
321
324
335
338
347
349
352
350
350
354
359
303
520
416
351
357
363
375
392
420
438
440
424
380
343
335
340
331
342
342
341
344
349
350
342
352
347
332
401
482
363
342
347
351
360
377
402
420
418
405
358
319
314
310
308
310
309
314
324
316
310
321
320
319
248
511
406
328
333
341
345
366
392
409
419
410
370
330
317
311
315
326
334
345
345
345
346
353
358
362
282
572
450
353
358
365
381
397
425
440
446
437
402
360
345
347
342
347
351
360
358
357
353
354
356
355
306
531
411
352
351
362
371
390
408
431
442
428
383
347
334
331
337
336
337
337
334
341
339
338
340
345
349
339
293
503
396
334
342
345
358
377
400
423
424
413
376
338
316
319
314
326
328
327
330
337
335
338
344
345
345
269
570
450
344
351
357
362
384
406
427
436
429
392
350
330
327
333
335
336
333
342
359
340
346
346
341
348
267
580
444
350
354
361
381
380
400
427
431
429
395
345
322
320
324
315
310
325
332
322
326
328
336
337
315
377
444
354
332
339
340
353
373
401
423
424
407
361
335
330
333
330
343
336
350
345
346
347
345
360
346
293
529
413
344
353
354
371
383
414
429
434
436
384
345
343
334
339
329
342
338
335
336
337
334
339
333
328
464
374
342
346
343
365
381
408
422
431
410
362
326
316
317
322
321
332
336
330
332
338
341
347
326
452
461
357
344
344
356
365
389
416
422
421
395
349
312
305
300
295
302
307
305
298
296
300
298
296
212
528
393
281
284
287
291
308
331
350
369
356
324
281
263
259
257
266
257
262
266
260
270
274
275
283
205
502
392
294
296
312
323
337
367
389
403
402
365
316
305
306
310
319
338
345
333
335
347
347
342
337
308
495
406
352
357
362
384
391
425
437
438
429
380
343
328
331
336
343
350
350
351
356
363
352
361
274
590
462
360
358
363
365
388
409
435
450
439
405
352
342
336
332
337
330
333
345
330
330
339
338
333
261
545
424
330
341
346
363
380
403
421
431
417
384
339
318
319
324
333
337
351
355
341
359
351
360
359
313
515
414
355
368
366
375
401
418
436
443
438
385
341
335
339
335
351
349
351
356
359
344
356
357
276
570
434
357
358
360
374
389
413
433
436
428
387
344
325
325
324
330
326
342
339
332
339
338
343
300
491
442
348
337
345
358
367
393
413
429
430
398
353
330
315
327
328
345
352
344
348
354
359
359
295
584
478
356
359
361
375
389
414
437
448
442
407
361
340
336
350
340
359
342
351
348
358
358
356
333
519
394
359
357
370
376
395
419
441
436
420
379
340
326
321
322
323
333
324
320
324
329
329
323
353
439
354
325
338
340
358
378
401
417
416
399
346
320
306
309
318
334
338
324
332
334
330
329
261
569
445
329
325
331
340
360
379
403
405
404
363
314
294
296
296
294
308
300
301
300
304
300
304
233
509
375
305
315
316
328
343
377
392
407
400
355
311
301
303
304
303
314
314
308
312
323
321
326
251
552
435
331
333
342
361
373
403
422
432
425
390
346
327
322
324
324
339
345
338
340
343
344
347
293
567
467
360
359
372
380
402
420
443
449
442
412
366
343
340
345
349
363
360
361
361
366
367
369
289
607
474
362
365
375
381
395
421
446
451
447
406
360
341
339
336
340
343
352
342
344
349
346
349
298
536
459
353
349
366
372
384
411
430
439
440
407
359
334
333
333
340
351
363
351
351
356
355
357
318
519
468
363
353
356
362
378
396
422
440
433
404
352
325
319
313
318
326
331
324
326
327
330
333
290
465
450
330
317
323
328
343
367
396
413
411
380
329
307
296
293
294
293
299
311
305
306
317
319
319
258
531
430
323
325
329
342
363
391
414
428
424
385
343
324
321
320
333
340
355
351
352
357
361
367
363
328
508
414
362
368
377
389
406
434
448
454
436
392
354
344
342
346
351
362
356
358
357
362
363
361
309
527
405
350
355
362
372
390
416
432
439
421
379
338
328
326
328
332
345
341
335
337
339
338
342
273
500
406
336
344
351
366
384
411
432
437
425
383
345
330
326
333
335
345
351
340
338
341
343
345
270
579
458
337
338
345
352
369
393
418
429
423
389
345
328
322
325
322
329
339
333
329
331
329
333
334
282
501
391
333
341
349
357
380
401
425
430
417
368
332
319
315
323
326
334
346
339
344
345
349
352
341
426
462
382
357
366
372
384
407
430
444
446
421
371
340
328
330
331
335
346
345
336
337
341
339
342
260
575
443
336
338
338
348
361
386
409
415
405
367
327
303
301
300
303
304
312
315
313
310
310
315
311
236
543
406
312
315
320
336
354
381
401
410
406
373
328
311
308
314
319
328
339
327
326
332
334
336
271
556
453
336
334
339
348
364
390
413
426
421
388
338
318
311
318
318
322
335
326
323
325
319
316
258
517
429
308
308
317
325
334
356
385
392
388
358
305
285
285
284
285
292
298
305
298
303
305
305
306
252
468
380
316
325
331
343
363
393
407
419
403
364
325
313
311
317
323
332
335
329
330
335
340
347
273
573
456
342
341
348
355
371
397
420
430
429
388
345
325
322
332
341
347
365
361
357
350
353
362
361
297
547
424
363
363
373
380
400
426
447
448
436
392
350
347
342
342
355
360
371
360
358
361
361
362
293
597
474
368
375
377
395
410
438
460
466
464
429
382
359
357
357
361
368
380
369
364
365
365
367
338
463
484
375
354
358
362
373
393
417
428
428
401
349
321
314
311
311
315
319
326
316
311
313
308
314
280
405
420
310
292
294
305
310
334
357
370
374
352
302
269
266
263
268
273
278
290
285
288
294
295
298
252
481
408
317
310
324
340
356
387
411
426
428
405
359
338
336
341
346
353
363
367
359
367
369
373
377
309
574
446
381
379
384
395
411
436
455
467
452
408
368
362
362
369
367
370
384
374
370
371
371
372
367
367
499
403
366
368
375
384
406
430
446
448
433
385
356
329
335
341
342
346
354
347
346
354
351
356
329
483
461
376
365
374
382
397
421
437
446
444
423
374
343
334
338
343
345
350
360
348
347
350
355
353
271
585
454
338
342
341
355
369
397
419
423
423
384
331
310
309
308
309
319
331
323
320
325
327
328
281
500
438
338
337
347
355
378
396
429
439
439
410
365
333
327
326
335
345
354
341
339
340
340
346
280
559
462
345
345
358
343
370
394
420
432
430
398
351
336
329
329
329
341
338
335
333
333
333
333
263
524
405
331
331
343
360
375
399
420
429
417
372
331
315
311
310
322
339
326
326
332
340
339
307
504
449
361
346
355
368
393
414
446
447
451
434
372
350
346
346
357
363
363
344
348
350
356
328
471
463
363
346
352
364
381
400
424
435
430
406
354
332
327
330
334
348
341
343
339
346
348
338
351
474
378
344
345
356
369
388
414
426
431
408
361
327
318
323
321
329
343
332
332
337
342
338
325
379
452
357
337
341
348
352
377
406
419
426
396
352
324
303
307
314
318
329
324
323
325
328
333
323
369
443
358
337
343
348
366
388
418
436
440
415
374
342
335
336
342
352
355
347
348
346
349
354
283
580
471
358
355
359
369
387
410
431
441
442
403
354
337
334
339
340
343
353
341
343
344
348
349
282
560
461
347
350
353
360
372
397
424
435
438
397
353
329
327
326
329
327
338
331
327
329
332
335
311
428
438
347
336
340
347
365
382
412
429
428
402
360
322
317
316
319
327
334
339
332
334
338
343
348
265
563
437
349
356
356
367
385
404
427
440
422
381
343
320
325
325
331
333
342
328
332
335
340
345
279
531
462
345
341
346
355
375
399
424
438
439
401
363
337
334
338
330
338
336
340
347
339
341
349
334
341
278
525
404
349
345
351
362
384
407
434
443
430
382
337
321
320
325
332
343
348
340
346
342
352
353
305
532
467
358
348
355
367
382
398
426
440
434
399
351
326
320
322
319
319
333
327
324
324
326
331
321
314
463
359
320
322
327
338
358
388
403
415
397
342
311
301
298
297
301
298
300
309
307
309
315
313
313
282
436
423
331
317
324
339
345
371
394
415
415
396
347
316
308
315
314
329
338
341
336
344
349
353
356
285
579
468
360
360
365
375
396
417
438
451
445
406
360
346
338
343
338
346
360
354
349
354
354
356
354
325
513
396
352
356
356
372
398
416
438
447
428
380
341
336
330
327
329
326
340
335
331
332
337
340
327
386
437
364
351
340
348
369
380
414
426
429
414
364
336
328
320
333
334
343
347
343
348
347
350
350
271
560
433
347
351
359
368
396
420
442
445
432
392
341
333
333
334
339
350
345
344
338
346
348
348
266
577
444
344
351
357
364
379
408
427
439
430
397
353
337
338
338
336
341
345
340
338
338
343
349
295
515
452
344
338
347
359
369
398
417
429
429
395
346
324
320
318
320
326
340
335
333
335
338
342
346
266
564
434
350
349
359
369
390
416
434
442
436
393
347
332
327
329
336
349
347
340
346
342
348
355
275
574
461
344
348
351
359
377
403
424
437
431
394
352
329
327
329
331
333
341
343
341
344
344
346
349
287
511
403
345
349
357
366
385
411
428
438
419
379
341
325
322
318
320
332
335
328
331
333
338
339
264
534
420
335
335
337
351
372
391
412
418
405
364
319
296
294
294
304
319
303
301
301
311
305
304
312
419
343
304
305
313
321
343
367
382
383
364
310
274
265
264
270
279
280
275
277
276
283
283
203
513
387
285
289
300
314
337
363
385
402
399
357
311
303
305
309
313
333
329
328
337
337
342
341
327
486
392
353
362
371
382
404
434
453
459
444
397
365
363
359
361
366
378
372
370
373
378
381
375
364
510
414
376
380
387
400
427
444
466
468
445
400
364
355
348
352
361
356
352
352
357
359
364
291
569
464
360
363
365
375
388
414
435
446
436
399
351
338
335
334
337
348
340
341
343
349
349
331
404
459
368
350
355
363
379
397
422
438
441
426
382
350
344
340
347
351
345
340
341
342
340
309
470
438
352
343
351
362
377
397
417
430
425
401
352
327
322
324
337
342
335
333
332
340
343
264
555
439
343
354
365
378
400
424
445
450
441
396
354
339
340
345
354
348
342
348
344
350
317
454
469
362
351
350
361
376
396
422
438
440
411
365
342
333
335
341
345
339
339
344
344
350
315
485
463
353
344
352
359
368
389
413
422
422
395
351
329
324
324
328
332
333
324
332
333
338
331
311
461
381
339
335
355
363
391
413
431
435
417
376
344
332
334
341
356
350
342
341
347
353
334
387
464
374
347
347
355
366
388
408
428
425
407
354
326
318
318
321
335
330
325
323
330
332
335
260
556
436
337
336
338
349
365
386
415
421
412
373
327
309
307
303
307
305
318
312
304
308
308
306
301
325
419
348
313
315
324
343
363
386
403
410
392
354
316
301
301
308
318
326
319
323
329
333
344
286
557
461
359
357
365
377
388
418
439
447
446
412
364
345
338
341
347
353
346
349
348
350
353
291
544
467
352
343
340
352
372
391
413
426
429
386
348
321
318
313
321
327
336
330
324
329
331
336
272
536
454
339
346
346
355
367
389
418
428
426
383
342
320
317
320
324
341
329
329
333
337
335
336
297
464
393
334
348
351
360
384
412
428
429
418
370
335
320
324
332
341
361
346
354
353
369
371
313
560
480
369
366
369
374
389
416
441
448
444
413
364
343
340
338
344
360
351
343
348
349
354
352
271
587
442
351
354
352
369
385
410
430
441
435
395
353
335
335
335
336
338
345
357
344
346
348
348
348
282
544
414
352
353
357
359
377
399
428
435
425
386
345
332
322
320
325
316
328
319
327
338
337
342
256
548
438
332
337
344
355
379
395
417
425
419
378
331
319
317
321
333
346
341
340
342
348
354
306
524
467
355
353
359
368
388
407
430
441
441
410
361
343
334
334
337
347
352
345
345
347
343
347
280
551
460
346
339
347
358
375
400
423
436
437
400
355
328
326
330
326
330
336
344
339
338
345
347
342
287
527
455
341
336
344
348
373
393
419
430
428
399
349
321
314
321
316
324
327
341
334
337
336
344
353
315
495
461
362
353
355
371
380
405
432
447
446
419
365
336
333
332
335
344
340
344
350
339
345
344
347
353
266
591
440
341
343
350
355
378
397
426
435
435
396
346
330
329
324
328
329
333
348
344
345
346
343
346
319
430
462
358
347
349
363
370
392
414
434
434
416
367
334
323
323
326
327
334
337
351
351
346
353
355
359
302
553
474
356
358
367
373
387
409
428
444
441
418
360
335
326
328
332
344
340
336
353
347
346
347
345
349
338
338
491
369
333
337
340
349
363
392
409
412
397
350
312
302
299
299
295
298
293
298
289
303
286
288
290
281
290
194
507
379
265
268
273
275
290
306
334
347
334
307
259
232
230
233
237
248
247
259
277
266
275
281
288
290
265
421
418
322
314
321
332
354
370
403
426
422
404
357
334
324
322
328
338
342
352
352
351
355
360
365
366
312
551
428
367
371
381
394
411
439
458
468
463
418
380
370
364
369
371
373
371
377
378
376
376
377
385
336
535
491
381
378
379
390
403
422
445
461
461
439
390
355
345
345
354
357
361
372
362
365
367
375
377
328
562
487
381
374
378
388
397
422
444
456
455
432
380
356
346
353
346
353
364
364
355
357
361
372
353
350
512
390
359
366
367
381
400
422
441
451
432
380
343
332
325
324
324
333
330
333
330
335
338
338
264
557
448
331
337
340
354
372
391
423
426
422
383
334
322
312
316
327
342
337
336
340
345
353
355
298
524
416
351
353
364
373
395
418
438
445
430
385
345
330
332
334
343
348
342
340
346
345
349
325
427
469
361
346
347
352
371
385
416
423
429
410
363
331
323
322
329
326
329
338
338
334
339
335
339
337
295
505
382
338
340
336
350
363
392
401
410
403
359
316
300
298
300
302
301
314
311
307
311
318
313
317
239
544
414
316
319
326
343
358
381
407
411
412
382
331
310
311
311
318
325
337
328
335
337
347
349
346
332
490
405
355
361
367
379
399
424
441
448
432
393
353
344
340
344
351
363
358
355
356
358
360
364
289
597
469
361
358
363
378
385
414
434
446
439
408
366
339
342
342
345
348
359
351
352
356
357
359
349
346
490
385
349
348
361
368
387
411
427
437
420
378
336
329
321
325
331
330
344
334
338
334
341
342
324
420
441
365
341
351
360
374
393
422
437
444
428
380
348
335
335
336
345
357
349
346
347
349
355
353
267
582
431
347
351
356
365
378
401
421
431
429
388
346
330
330
331
335
338
345
337
339
341
347
352
311
492
466
355
348
346
357
364
382
409
419
430
406
357
325
322
314
321
322
335
327
326
324
332
333
336
267
496
407
329
339
341
352
375
402
418
426
418
380
342
326
330
335
342
352
352
348
344
347
349
351
279
584
461
349
351
354
363
378
406
427
440
436
403
357
335
329
328
333
330
340
349
342
346
347
348
348
343
341
492
383
345
351
355
368
389
410
437
440
427
385
345
335
330
331
338
336
344
337
344
353
350
354
355
354
354
276
565
430
351
349
349
358
373
399
424
429
423
392
345
324
321
321
325
327
331
330
340
335
333
333
340
337
283
550
458
343
346
348
362
379
405
429
440
446
418
372
338
337
338
341
348
350
357
354
351
354
356
353
354
270
594
451
352
350
354
361
376
396
425
435
429
394
350
325
327
321
324
328
325
332
341
336
335
341
343
339
305
473
453
348
336
340
348
366
387
410
428
428
408
360
328
319
317
322
326
333
341
346
337
348
349
347
353
282
586
464
354
350
357
365
381
403
428
435
435
404
359
337
330
333
336
340
336
348
347
339
349
343
347
348
272
591
429
350
343
350
361
374
400
411
438
423
394
347
329
319
324
320
329
332
338
330
334
334
335
336
291
517
439
341
334
340
351
365
387
402
425
423
401
355
323
316
321
329
335
344
351
345
346
346
351
350
281
585
464
351
346
353
365
378
401
423
440
435
402
353
329
325
324
328
333
345
340
335
339
339
341
343
264
555
414
338
338
344
356
372
401
425
436
426
383
341
321
316
320
317
322
330
324
323
324
330
327
296
459
424
340
329
334
343
357
382
412
417
422
403
353
323
316
313
321
333
334
333
334
338
341
351
321
463
455
372
352
366
366
385
407
431
446
443
425
371
339
338
335
338
353
347
342
343
340
345
341
264
580
456
334
336
343
348
364
386
409
422
419
387
337
321
317
314
318
329
327
323
326
326
330
332
256
555
434
331
332
341
352
366
392
415
422
414
381
335
306
305
305
316
327
315
312
307
306
316
313
267
480
376
308
318
324
344
363
383
386
397
376
325
284
268
273
280
293
279
255
278
276
279
281
242
479
347
288
305
320
347
381
419
452
464
458
416
389
388
385
400
420
411
403
408
406
412
412
333
649
488
403
406
407
414
430
459
476
483
467
414
366
346
340
338
338
338
340
348
342
343
346
338
338
290
524
449
327
321
328
343
345
376
398
412
416
386
332
294
287
283
289
290
293
296
306
301
301
302
306
307
300
339
449
336
306
310
317
332
350
376
392
404
389
338
297
286
289
293
298
303
300
305
315
315
319
324
326
329
254
555
443
324
325
333
340
361
382
410
429
430
402
352
325
323
318
326
331
339
338
344
355
352
350
355
356
355
325
485
484
370
364
367
374
386
405
436
448
452
431
384
347
331
333
336
342
348
345
342
346
363
354
351
357
358
364
277
589
460
356
362
367
373
397
421
447
460
454
424
376
350
341
345
348
350
355
359
366
360
364
364
364
367
283
595
460
361
361
365
375
389
410
436
444
447
403
358
339
334
333
336
335
342
341
352
346
349
355
351
348
270
563
435
346
347
354
356
376
400
422
433
432
397
347
329
327
328
333
333
335
338
336
350
345
350
349
353
353
272
546
427
345
348
351
358
376
395
420
433
425
389
344
320
319
322
323
329
329
330
341
346
344
345
349
351
349
323
491
393
352
352
362
369
386
410
431
439
432
388
344
331
333
333
337
336
339
340
352
349
347
353
355
354
340
382
478
376
354
350
360
370
389
412
435
440
430
385
344
336
324
328
333
334
336
345
351
347
347
350
353
355
273
559
459
345
346
352
359
372
394
420
432
439
409
356
330
324
326
323
322
326
327
332
323
325
321
323
325
248
493
389
307
313
318
319
338
362
378
384
373
330
279
258
252
255
251
257
259
264
258
259
260
271
259
254
384
309
270
276
282
300
319
348
371
375
368
327
285
278
285
287
297
312
317
316
321
324
330
332
255
565
430
340
342
358
363
386
417
443
456
455
418
372
352
352
353
355
357
376
362
362
368
369
369
354
397
497
392
369
367
372
388
409
438
456
465
448
400
365
351
354
350
353
353
363
358
357
358
360
363
359
338
491
402
359
363
373
380
403
427
452
452
438
395
352
333
335
338
339
350
359
351
354
359
362
365
332
510
480
380
371
375
386
399
414
442
455
452
429
379
345
337
335
343
348
358
351
344
345
348
349
350
288
541
400
345
346
350
355
376
400
424
434
424
381
333
324
321
322
323
326
340
330
327
338
339
346
331
347
458
381
340
345
350
366
390
411
430
436
416
373
334
318
313
316
320
337
333
324
331
331
334
340
262
578
441
337
344
350
357
370
398
419
424
420
379
334
315
309
311
316
332
330
324
333
328
332
337
257
575
444
324
326
334
339
355
379
404
416
418
381
339
316
308
311
313
311
325
320
317
320
324
326
331
249
550
418
326
339
340
355
373
395
420
431
429
388
340
320
318
322
326
334
338
335
334
342
348
354
284
584
471
360
362
370
380
396
419
445
456
454
419
371
341
340
343
347
355
356
354
351
353
356
358
310
524
484
360
354
358
366
378
400
428
443
445
414
360
330
323
323
319
325
339
333
333
337
340
337
343
275
517
410
344
344
352
364
380
407
428
433
430
385
341
325
323
329
338
343
351
348
347
351
354
356
310
532
472
355
350
359
363
378
400
425
439
439
411
362
332
322
326
330
331
337
339
335
340
340
344
343
289
523
464
347
338
343
352
367
386
409
426
425
398
343
314
306
306
304
306
308
321
312
311
303
307
306
303
243
464
361
301
298
301
310
320
353
375
376
368
326
278
264
261
266
275
278
290
285
286
286
296
294
300
213
536
397
293
302
312
318
341
364
394
407
406
369
327
306
301
305
313
318
326
339
333
339
344
349
354
301
531
483
353
358
361
376
385
410
435
450
453
422
377
348
336
339
345
345
350
361
362
357
362
366
366
367
305
527
432
366
371
383
389
413
441
464
470
461
420
377
363
357
357
366
368
369
377
369
373
376
376
379
323
564
498
373
369
374
379
393
418
436
461
462
436
374
347
341
342
341
343
341
350
348
342
346
348
347
350
266
570
439
344
346
357
364
377
401
426
433
432
393
351
327
321
326
331
342
343
348
355
352
350
357
354
362
282
595
464
356
354
357
372
384
412
431
439
434
403
354
326
323
324
327
333
344
338
332
340
337
344
346
310
474
462
347
341
346
352
366
393
421
432
438
419
361
332
320
319
316
321
321
324
339
333
333
335
340
342
331
372
449
370
341
344
351
362
387
406
432
439
425
377
341
324
332
327
338
340
352
353
349
350
353
357
353
269
589
438
351
356
364
368
384
410
431
440
430
391
341
319
322
320
320
326
337
339
329
331
335
342
344
263
585
445
335
337
348
349
367
390
412
426
420
384
338
305
297
299
294
297
291
299
297
290
289
284
283
268
286
399
311
274
269
271
287
298
321
339
342
326
274
233
214
215
216
224
230
248
244
247
255
263
271
280
201
506
384
292
302
314
320
352
375
402
420
413
378
337
321
317
323
329
340
352
355
356
358
367
368
373
295
614
482
377
380
382
395
410
438
464
475
474
438
385
367
361
364
355
365
365
380
371
371
375
376
376
355
440
485
395
372
370
384
393
415
443
463
468
450
394
352
342
345
346
348
366
362
355
354
353
359
346
274
575
447
332
327
331
331
349
370
390
398
393
354
305
274
272
262
268
274
281
273
274
275
275
279
218
487
401
281
283
285
298
317
340
371
386
394
366
320
299
301
299
309
327
336
338
339
354
357
369
326
522
497
382
381
381
391
402
428
448
466
466
443
395
369
362
360
362
365
374
371
369
368
375
374
374
321
576
481
374
373
371
379
400
420
446
453
457
430
381
347
346
341
351
363
363
354
359
354
358
362
310
552
479
366
364
369
372
389
410
435
447
451
422
372
347
341
338
344
354
365
354
353
357
353
355
360
305
530
409
355
360
362
373
384
410
433
441
429
384
