324
324
327
324
308
496
349
327
336
340
349
363
382
396
408
404
385
346
328
326
341
357
350
339
342
345
348
354
353
404
417
380
367
371
382
393
411
429
444
450
442
410
374
364
363
372
385
368
361
358
358
357
358
359
334
536
375
353
354
359
364
374
390
406
411
410
379
343
320
314
322
335
339
322
317
316
319
319
320
275
576
343
320
323
332
334
343
358
374
387
388
365
327
307
300
301
313
322
327
312
308
309
312
313
317
276
564
333
322
324
330
337
346
361
379
387
394
380
340
312
302
300
308
317
328
323
312
309
313
312
318
319
270
575
346
325
329
332
341
354
370
389
407
404
389
342
320
312
319
319
329
343
339
328
325
326
329
331
332
344
419
350
333
334
341
348
363
378
398
404
398
374
332
316
312
309
327
342
333
319
320
317
320
324
320
389
373
345
326
336
340
353
372
389
409
417
415
381
345
337
336
343
359
374
364
353
354
360
361
365
328
617
375
375
372
380
388
402
417
437
451
455
434
395
364
356
355
358
371
378
362
356
352
353
353
350
301
626
366
342
342
343
349
362
374
392
405
402
378
333
308
300
298
301
309
320
317
302
300
304
301
301
304
268
526
338
305
310
317
325
336
354
372
382
384
356
320
299
292
296
301
312
327
324
315
312
312
314
320
323
279
582
350
329
329
338
343
352
373
392
401
409
384
344
319
318
310
315
324
335
342
325
318
321
326
328
327
363
400
354
334
336
345
352
366
389
407
413
409
374
339
326
321
324
337
348
358
341
335
340
341
342
345
302
613
370
349
356
358
370
383
399
418
433
437
417
378
347
338
338
342
351
360
355
336
338
340
342
344
331
439
372
358
343
348
355
363
375
393
410
416
411
368
334
323
316
316
324
333
349
328
323
326
326
327
330
313
480
352
345
336
342
348
360
375
396
410
421
412
379
336
320
322
321
323
332
341
345
323
322
318
321
322
311
430
344
334
320
324
331
344
354
371
390
397
392
356
316
309
302
306
315
329
328
316
310
309
315
310
317
279
523
341
314
317
320
327
343
355
375
382
383
355
316
294
287
287
291
299
308
292
287
286
286
288
290
270
457
311
304
296
300
309
318
331
354
369
375
365
324
295
284
284
283
291
300
309
319
307
300
308
309
314
318
278
556
341
321
325
333
337
348
364
385
396
404
391
354
326
318
315
322
327
332
337
346
353
342
343
346
349
353
354
364
473
384
360
363
369
377
390
408
428
437
436
409
368
350
341
342
344
345
348
353
364
354
345
345
345
347
351
313
573
358
351
348
351
358
366
378
396
411
415
404
364
327
316
311
309
307
310
313
314
323
306
303
302
302
305
311
259
568
325
306
308
317
324
336
352
368
382
383
372
332
302
297
294
300
303
307
316
332
321
315
318
320
323
328
292
559
348
336
337
344
352
366
380
400
415
421
412
379
348
337
337
339
344
348
359
372
357
350
351
351
354
353
311
600
381
354
359
365
373
377
392
404
418
415
401
365
332
319
320
320
321
334
344
335
322
321
322
324
327
311
452
331
338
326
333
339
352
362
380
395
400
393
366
332
312
310
313
319
326
340
332
319
316
320
320
326
321
370
384
349
329
333
339
347
360
378
396
404
401
370
331
315
309
311
314
328
339
330
318
320
320
325
326
330
285
579
360
334
337
343
350
357
374
392
406
412
395
360
329
322
321
325
329
340
346
333
326
326
327
332
331
292
572
344
336
337
347
354
359
379
395
409
411
401
362
331
320
314
321
327
339
344
328
323
326
327
333
332
296
573
338
341
342
350
355
370
383
402
419
418
412
374
342
327
324
326
338
352
344
328
325
325
328
329
333
285
592
347
330
330
333
343
352
367
385
396
398
380
344
311
302
302
302
308
318
318
302
298
299
301
298
300
252
545
312
293
296
295
304
313
330
347
357
364
350
313
282
273
274
275
292
304
306
294
293
299
300
308
311
280
537
333
328
336
348
356
372
392
411
427
431
409
373
350
345
343
356
371
377
358
349
355
356
357
359
316
618
370
362
364
370
374
385
402
418
427
428
409
367
338
325
321
333
342
348
331
327
325
327
329
331
302
541
335
338
337
342
350
358
372
391
402
408
399
362
330
311
310
312
323
334
323
311
312
313
314
319
324
283
557
353
329
332
337
346
357
369
390
399
400
380
340
317
309
307
311
318
335
327
316
320
319
321
323
324
286
577
344
335
334
343
349
360
376
394
413
414
402
368
339
330
329
334
349
359
359
347
341
342
347
349
349
307
601
366
351
350
356
361
369
386
403
416
419
402
366
333
321
317
323
330
339
348
338
328
330
332
334
336
333
381
407
358
338
344
348
358
374
388
410
421
415
387
349
328
323
322
330
338
353
345
336
333
335
338
340
342
311
579
356
353
354
358
368
373
389
406
430
429
422
382
349
336
332
336
343
352
358
346
335
338
337
335
339
329
411
377
356
338
339
345
350
364
381
397
400
398
366
328
312
310
309
313
326
336
326
312
316
312
318
316
319
295
508
345
320
324
329
336
347
364
385
394
395
371
333
309
302
303
304
313
322
329
311
307
309
311
317
316
274
569
341
321
323
330
340
352
370
386
397
403
389
350
325
315
316
319
329
343
350
336
332
335
339
342
345
345
390
427
377
358
363
369
378
391
412
427
435
437
407
368
347
342
343
342
352
366
357
346
346
346
349
346
349
305
582
370
344
348
352
360
369
384
401
413
417
397
356
331
321
320
323
328
334
347
331
320
321
320
324
324
326
297
524
352
322
332
338
346
360
375
394
402
408
386
344
324
309
312
316
327
338
333
320
318
322
320
321
325
277
575
335
324
323
328
333
343
358
376
390
391
379
342
310
298
297
300
309
325
319
303
303
305
311
308
313
269
562
343
315
321
328
336
346
360
383
394
403
379
340
316
308
311
312
322
337
325
316
313
316
319
321
318
299
488
333
334
329
332
337
345
362
380
392
404
399
363
335
320
315
320
332
353
345
330
333
334
336
342
339
360
453
370
350
349
358
365
379
398
414
423
421
391
351
331
328
331
341
352
349
334
330
331
332
334
335
329
400
400
356
339
341
348
356
371
389
404
413
407
378
337
321
317
313
324
340
328
321
319
320
317
324
324
284
570
332
329
329
328
334
344
363
379
393
394
389
350
325
313
311
331
341
349
339
338
341
349
352
351
313
599
374
363
364
372
377
385
403
417
431
436
424
384
351
336
331
342
345
348
332
318
319
316
316
314
303
396
357
321
300
302
309
313
327
345
358
363
361
331
290
273
273
279
294
300
286
283
284
290
288
294
284
390
342
314
301
307
315
326
340
359
373
385
381
348
317
295
297
303
317
327
308
305
301
310
308
312
311
350
388
336
321
328
337
345
365
379
399
413
411
383
346
329
329
335
349
360
345
336
337
341
343
346
340
420
396
366
349
356
360
367
380
398
416
422
416
386
350
333
329
335
345
356
339
334
334
334
339
340
333
388
398
349
332
340
351
351
361
383
399
405
403
371
335
319
314
322
335
340
326
322
325
328
328
331
287
591
358
337
341
346
353
365
383
402
419
421
402
361
338
326
336
343
351
334
324
324
326
326
326
319
375
379
340
321
325
334
345
358
378
396
400
396
366
334
314
313
320
339
324
316
316
318
322
326
315
437
361
346
333
338
344
358
373
400
408
414
416
377
347
329
327
335
351
336
327
325
325
327
327
329
303
520
358
335
336
345
353
364
378
396
403
403
383
348
322
318
324
332
342
325
321
323
322
324
326
285
585
345
332
335
340
348
360
376
395
405
407
388
353
328
320
320
329
340
336
330
321
326
328
331
331
367
425
353
336
342
350
358
369
386
402
408
405
378
342
323
318
322
327
336
318
310
308
308
308
311
274
527
315
318
319
323
331
342
355
372
383
388
380
349
320
313
316
324
339
327
316
319
324
325
328
315
449
336
344
340
346
352
362
374
388
401
406
403
380
347
330
334
338
343
352
338
325
332
329
336
334
293
550
350
339
339
349
353
365
378
393
398
397
378
344
324
316
322
329
340
325
314
316
317
317
320
277
553
340
327
327
335
346
357
373
390
399
399
384
349
326
319
323
333
345
328
319
322
324
328
331
335
350
427
358
341
340
345
350
360
378
392
399
394
373
340
321
314
326
336
339
318
318
323
325
329
333
322
470
362
344
350
359
369
388
404
417
427
420
401
361
338
329
344
351
356
344
336
337
335
337
347
336
495
362
347
349
355
361
370
387
400
415
419
391
348
332
328
334
334
349
330
329
326
330
330
318
439
345
344
336
332
348
358
367
379
392
398
395
361
332
312
311
319
322
330
313
309
315
313
312
286
479
306
313
309
313
317
326
342
359
361
369
360
327
298
279
288
298
309
294
283
286
290
292
298
259
518
325
309
311
323
329
344
359
379
384
388
373
335
317
316
327
342
336
320
321
324
330
332
296
571
350
346
347
353
360
370
390
408
423
426
411
376
350
346
354
365
375
360
353
357
353
354
357
312
608
372
355
362
360
370
381
391
412
415
419
399
358
339
329
337
356
345
327
329
327
331
337
319
503
336
346
347
350
359
369
389
407
419
424
411
377
349
335
343
356
361
344
336
334
335
335
336
338
440
355
335
338
343
351
366
379
395
401
392
359
328
310
305
315
328
319
309
306
307
308
308
310
338
392
333
316
319
324
334
347
367
383
392
388
351
321
307
304
305
315
328
313
301
302
303
304
305
291
457
312
320
316
323
330
340
351
371
385
389
382
347
316
304
301
306
318
335
322
311
311
313
314
313
294
490
319
330
323
328
334
344
358
378
389
397
386
350
323
311
309
312
317
324
335
340
327
319
325
325
330
320
419
357
349
331
337
341
350
365
377
395
403
393
359
329
311
309
303
313
324
333
325
314
310
315
318
317
282
530
342
321
325
334
345
359
378
400
411
408
382
344
326
323
322
332
342
357
340
330
333
336
340
340
311
548
367
341
343
350
358
372
388
409
418
414
384
344
324
321
321
326
335
343
347
335
333
337
342
347
354
318
569
382
355
359
367
371
383
402
421
430
437
405
364
344
328
333
334
341
346
357
345
336
339
344
344
346
304
579
365
343
348
355
361
377
391
414
428
427
400
362
338
333
329
330
338
345
356
342
332
332
336
333
338
296
576
362
339
339
346
352
368
385
404
415
419
394
350
331
324
322
327
331
338
352
340
327
326
328
331
331
292
555
341
333
332
338
340
352
365
384
396
403
387
345
315
305
303
303
305
311
327
320
303
302
304
303
304
282
486
308
313
310
316
327
337
353
372
390
397
388
352
319
310
305
306
311
325
338
334
324
321
322
327
331
312
479
343
345
336
338
349
358
373
395
408
416
406
369
334
322
320
319
322
324
333
341
340
326
326
331
336
333
303
524
342
339
335
341
347
356
369
389
405
408
402
359
329
316
312
314
314
321
327
335
323
315
317
319
317
321
276
557
339
321
327
332
343
357
371
392
404
406
382
343
321
313
312
317
327
337
344
327
319
323
324
325
329
287
578
354
329
332
340
350
362
378
397
412
413
388
346
322
313
313
316
327
337
337
323
320
321
328
329
322
314
476
351
324
332
334
345
360
377
399
407
406
374
337
317
311
311
311
319
330
341
326
320
324
324
325
319
384
382
347
327
337
341
349
363
379
397
405
402
370
333
319
314
315
328
342
343
329
328
331
332
338
330
410
390
363
350
355
364
373
387
408
427
436
431
393
356
342
339
341
351
364
353
343
345
347
346
348
330
490
356
355
346
345
352
360
375
390
402
406
394
352
322
306
298
300
313
319
304
292
294
296
294
296
267
502
292
303
297
306
314
324
344
365
377
386
374
338
307
294
295
309
324
319
307
305
308
310
317
317
298
483
338
318
321
328
339
350
369
387
395
395
365
327
311
305
310
320
334
316
309
311
313
317
322
282
562
331
330
333
342
347
358
374
398
417
418
397
355
330
320
317
319
337
326
308
312
303
306
312
317
315
402
325
318
312
314
337
345
369
384
405
394
364
330
320
309
326
351
327
329
328
327
334
341
327
455
355
348
366
351
343
373
392
418
437
445
441
401
369
354
356
357
368
347
335
340
337
337
337
311
547
337
341
337
339
341
350
363
377
389
382
369
335
309
301
301
312
322
306
295
297
296
297
295
252
528
305
291
297
301
314
329
347
364
380
382
365
331
316
310
320
337
325
316
323
323
327
329
332
389
386
351
339
343
354
365
379
397
412
415
414
381
348
337
338
348
351
335
333
332
337
336
341
334
372
408
353
339
342
348
353
364
384
400
405
402
370
334
321
316
327
342
330
320
321
320
321
322
327
289
551
347
327
329
335
339
353
368
384
394
394
369
338
314
309
311
321
335
321
310
310
311
309
314
310
379
360
340
328
330
336
333
351
367
387
395
389
359
325
311
308
315
323
338
320
312
311
316
316
321
280
556
337
338
343
353
359
371
389
407
421
428
414
378
355
351
350
365
375
366
356
355
358
359
360
336
540
359
369
373
371
382
391
405
424
437
447
430
393
358
343
342
340
352
348
331
322
319
320
318
319
299
469
339
315
320
323
332
343
353
370
376
376
349
316
296
293
299
311
326
313
303
300
307
309
308
273
542
330
319
322
329
335
346
364
380
389
396
382
346
331
315
319
328
335
344
329
318
320
323
323
326
295
501
345
325
332
331
336
352
363
378
387
385
362
327
307
301
299
311
322
318
307
302
304
306
311
294
469
325
328
322
327
340
348
362
381
397
399
391
361
328
321
319
330
340
340
332
325
324
324
327
338
326
467
355
336
339
351
356
368
378
400
406
419
382
343
322
314
315
325
335
332
318
310
314
311
318
298
441
315
324
312
315
319
322
340
353
369
373
370
329
305
295
294
295
312
331
317
307
312
314
318
323
289
531
353
331
336
339
350
360
376
401
405
408
386
349
329
324
329
338
350
336
326
326
329
326
332
288
568
356
331
333
338
347
362
380
394
399
399
377
341
315
312
315
329
341
328
315
317
320
323
324
285
548
350
328
331
339
345
362
372
392
398
400
374
341
321
314
325
333
346
332
323
330
332
338
343
316
536
379
353
362
370
382
395
416
434
444
444
422
389
376
374
384
399
398
389
389
396
400
402
396
517
438
426
417
422
429
439
453
466
478
483
471
439
410
394
391
398
407
389
378
375
375
374
372
348
521
366
362
355
352
356
357
368
381
391
391
377
341
310
299
294
303
317
299
290
290
286
285
289
249
508
289
286
285
290
300
308
323
341
350
352
339
306
283
275
285
293
302
287
281
279
285
286
290
269
462
318
296
300
306
317
329
348
366
371
371
345
311
294
293
303
319
309
300
298
301
304
309
306
379
359
332
319
323
332
340
353
372
384
392
387
356
330
314
318
327
343
348
334
334
337
341
347
351
329
531
384
364
373
382
391
407
422
439
448
451
425
394
379
374
379
389
403
386
378
383
377
376
377
366
456
394
377
368
368
372
376
388
399
410
405
397
365
328
319
312
316
333
313
298
294
292
298
296
288
417
314
311
304
313
318
333
347
365
376
383
371
340
313
303
304
317
332
322
313
312
316
315
318
280
550
331
321
320
323
329
340
357
371
386
387
370
332
307
298
300
309
322
305
297
297
299
297
301
279
470
317
311
304
308
318
331
345
360
374
375
367
335
306
297
298
303
309
321
315
308
311
315
318
321
292
528
340
337
338
347
355
368
388
408
423
430
421
388
363
356
357
361
369
383
373
373
372
374
378
386
346
595
387
380
377
382
386
394
405
421
432
435
421
385
353
340
340
340
348
356
339
329
329
325
328
324
286
539
341
325
325
332
336
347
364
387
392
392
368
332
312
303
307
315
333
319
308
307
309
308
313
271
554
331
315
316
321
332
339
355
375
386
387
371
334
312
306
306
314
332
329
315
310
311
315
317
315
358
387
342
326
330
333
342
356
370
386
395
387
354
324
311
308
312
322
335
336
322
322
321
326
331
336
319
491
363
344
352
359
371
383
401
421
432
438
409
376
359
354
356
360
368
378
377
370
362
368
368
372
363
474
391
375
364
366
374
381
391
410
420
423
409
375
341
328
320
325
331
348
332
322
316
321
323
326
281
553
349
319
325
328
336
346
360
377
385
380
354
317
296
294
294
307
320
308
298
299
298
301
305
260
556
329
309
310
314
320
332
348
364
381
382
364
329
305
298
297
308
317
327
312
306
308
310
312
314
279
528
343
319
322
329
340
350
366
384
394
396
372
338
317
315
315
323
332
340
328
321
326
328
334
336
316
492
355
334
338
343
349
360
375
387
396
391
365
330
311
305
302
315
324
326
311
307
306
313
311
315
314
428
335
317
324
329
342
356
373
391
398
397
369
334
321
320
326
340
350
337
330
332
332
335
339
314
521
373
345
350
352
361
374
393
412
417
416
385
349
330
326
330
341
352
339
329
331
333
333
337
306
536
351
341
341
346
352
359
374
390
405
409
394
357
331
319
318
327
337
338
324
321
321
322
325
327
307
494
355
330
335
339
348
359
373
389
399
396
371
336
317
310
313
321
332
321
308
311
311
311
312
310
383
354
334
318
323
329
339
350
368
381
389
383
350
322
312
303
314
321
338
321
314
314
316
322
322
282
568
345
328
331
336
345
357
375
391
401
401
381
344
323
316
316
329
345
336
323
324
328
326
329
321
424
365
345
334
337
343
353
369
384
400
406
398
364
335
323
318
325
336
348
335
327
326
329
329
333
296
559
352
340
337
342
351
362
377
395
410
415
401
368
348
341
340
351
361
371
356
351
354
360
362
360
327
599
375
369
366
373
379
394
406
429
434
437
421
383
357
349
346
350
363
369
344
341
342
341
340
339
363
412
355
339
342
345
351
364
379
392
397
388
354
320
302
298
303
311
321
308
297
297
300
302
305
271
513
318
311
310
312
319
326
339
357
368
371
360
323
297
288
288
298
305
313
298
294
296
299
299
303
281
462
319
316
310
313
321
331
345
360
374
382
379
342
316
302
303
306
313
328
318
306
307
309
310
311
308
336
384
329
312
318
322
330
345
359
378
382
382
354
318
305
298
300
312
328
321
306
305
308
313
316
320
290
528
349
325
333
339
350
361
381
396
406
405
383
349
330
324
328
339
353
349
337
336
338
339
340
342
326
511
375
350
355
360
369
379
395
412
418
418
390
356
337
335
334
344
353
356
341
336
337
343
337
342
301
566
352
339
339
341
347
357
370
385
397
402
385
349
324
310
313
314
329
335
320
310
311
306
308
313
274
539
319
316
321
321
329
344
360
378
393
396
382
345
323
315
315
329
341
345
326
327
329
331
335
339
301
567
364
345
349
353
363
374
394
412
425
425
403
367
348
346
346
357
376
367
357
356
359
361
364
365
341
560
394
371
375
381
390
398
415
429
438
439
411
376
357
351
349
356
375
357
346
341
341
343
341
337
356
418
349
331
335
332
346
351
371
384
387
381
349
311
291
286
285
299
306
300
285
287
289
292
293
284
433
307
310
305
313
321
331
350
368
384
391
381
347
318
309
308
319
330
331
319
314
316
317
320
323
283
571
345
329
334
339
348
358
373
391
400
407
380
344
324
314
314
324
335
340
324
322
322
324
327
329
286
559
349
328
331
335
343
357
372
387
397
398
376
340
318
312
310
317
325
337
329
325
323
323
321
324
321
412
367
349
334
338
336
346
362
374
392
399
395
358
327
311
303
308
314
330
318
305
308
310
312
317
289
508
318
329
327
332
339
351
367
389
404
407
394
362
333
322
322
327
339
353
337
327
328
330
331
335
313
503
343
346
337
345
349
360
376
393
407
412
402
366
333
322
318
322
331
343
339
325
325
326
326
333
329
331
462
355
333
340
346
352
365
382
397
405
403
374
336
322
319
320
329
336
346
332
324
327
329
330
332
292
563
346
334
337
338
347
357
374
390
403
404
391
352
327
317
317
321
331
346
337
324
325
326
328
329
331
330
454
356
335
336
345
353
365
383
396
406
403
370
340
320
314
319
324
333
343
326
319
320
321
319
321
282
551
344
321
326
330
339
351
368
387
399
396
374
332
315
307
310
325
334
342
324
320
322
324
327
331
288
586
348
334
340
346
352
366
383
399
413
413
389
354
332
323
324
336
346
347
330
330
332
336
334
338
299
580
361
341
345
352
359
371
388
405
418
419
391
352
334
328
327
331
341
353
341
333
334
334
338
339
322
466
358
349
338
342
348
355
369
385
403
410
402
369
337
325
320
321
330
339
343
323
318
317
316
313
320
274
559
332
319
314
326
330
340
355
373
385
384
373
335
312
301
303
306
314
336
319
307
309
311
309
314
292
505
323
324
323
330
336
351
369
386
402
411
399
361
337
327
324
329
339
355
339
329
333
330
333
334
326
421
375
347
334
336
343
350
365
382
398
406
400
366
332
320
317
317
327
343
331
321
323
325
324
328
326
341
438
348
328
333
337
347
357
375
394
401
399
371
334
321
319
317
326
338
331
315
313
313
317
316
313
321
429
336
313
318
327
333
348
367
379
390
387
358
326
307
306
306
318
328
332
313
314
313
317
316
321
281
557
345
325
333
339
346
359
376
397
405
406
380
344
325
317
317
330
344
330
324
320
325
325
328
332
297
574
356
338
341
347
352
365
384
396
408
408
383
349
327
321
320
333
347
339
322
323
326
327
327
331
318
492
360
334
340
348
355
367
383
402
414
410
384
349
330
326
328
335
350
337
323
323
319
323
320
315
402
353
335
320
324
329
338
352
365
381
389
382
348
319
302
298
311
323
321
307
303
303
308
311
312
279
533
332
317
324
331
339
354
371
389
396
397
369
336
317
311
321
330
343
328
319
323
324
324
326
302
522
340
336
336
338
348
360
372
391
405
410
394
359
331
318
316
326
340
334
318
315
321
320
326
325
290
558
355
330
331
337
345
355
371
387
397
396
372
336
317
312
316
324
338
324
315
315
319
321
326
326
289
573
347
332
334
334
341
348
363
379
390
394
373
337
313
303
303
313
320
330
312
305
306
309
311
311
289
495
336
316
322
324
337
347
367
383
393
388
363
327
311
310
316
329
344
329
320
323
328
335
336
312
531
347
347
345
346
354
367
378
398
410
414
403
367
340
331
335
343
346
332
327
328
331
329
335
325
442
366
349
338
343
351
364
375
390
407
413
404
372
343
330
330
337
351
343
329
326
331
330
332
333
349
432
354
336
337
342
353
365
386
401
408
404
378
340
327
319
322
328
342
332
321
318
317
323
319
315
396
352
331
323
322
331
340
351
371
383
389
383
352
318
302
302
305
327
320
302
301
303
305
309
313
281
533
338
319
326
329
341
354
371
388
396
396
372
337
318
314
322
339
332
321
319
322
324
325
329
288
582
351
334
337
343
350
363
378
397
406
407
386
350
331
327
329
336
351
336
325
326
330
330
332
311
491
340
339
333
340
346
353
367
387
400
406
397
357
329
320
318
324
331
333
316
310
313
318
311
317
279
536
318
320
320
322
333
341
354
374
381
384
372
341
315
303
305
318
334
320
314
315
317
318
324
306
496
336
342
338
348
350
362
379
394
410
409
400
365
337
326
329
340
348
332
327
326
325
330
329
307
507
337
337
331
336
342
350
365
385
397
400
390
356
335
322
323
327
336
324
320
321
324
324
329
294
568
346
340
340
347
353
364
378
397
407
412
394
358
336
332
338
346
358
341
339
342
340
346
348
320
562
372
351
355
360
367
379
393
408
417
415
392
357
341
340
344
355
339
333
334
334
336
337
302
562
347
342
344
349
354
364
378
396
409
411
391
355
333
324
335
346
328
318
319
318
321
318
303
472
313
327
321
320
330
337
352
366
378
380
367
336
311
302
310
324
315
306
303
307
311
317
298
467
325
331
327
332
341
351
367
383
393
398
388
352
329
317
324
342
327
321
319
319
320
322
320
373
382
342
327
332
338
345
359
380
390
397
389
360
330
319
323
330
341
324
316
318
320
321
323
294
525
344
327
331
337
344
354
370
384
394
392
372
338
322
316
326
341
329
318
319
319
323
323
311
400
355
334
322
328
331
343
353
371
385
385
375
343
317
304
303
311
330
315
306
305
308
312
315
275
557
332
323
328
338
345
358
373
391
399
396
381
346
328
322
332
351
344
331
330
329
333
333
331
391
390
356
341
347
351
359
373
389
400
406
395
367
336
327
320
331
343
347
331
324
329
327
332
332
314
500
356
337
339
344
352
364
378
392
400
396
371
339
323
320
325
332
344
334
326
322
325
329
324
318
427
345
336
327
328
339
343
358
372
388
388
380
350
323
307
305
309
322
330
317
305
310
315
314
317
309
456
342
324
329
340
347
365
382
397
402
400
372
339
323
319
328
338
347
335
322
325
327
327
331
289
577
348
334
333
338
345
358
371
386
398
398
373
338
318
314
312
320
333
333
317
314
318
318
320
302
485
326
329
324
329
333
343
357
375
389
392
386
352
320
315
313
316
331
340
327
318
318
317
319
320
295
500
322
326
331
331
342
356
370
387
404
409
395
360
334
321
320
328
339
353
336
320
327
328
328
328
375
387
350
338
342
350
359
373
392
407
414
403
372
344
330
326
334
343
354
339
331
330
331
335
337
292
587
353
338
341
342
348
362
375
393
401
402
378
343
321
314
314
320
329
340
322
317
317
317
320
321
292
522
347
329
331
334
342
351
365
381
392
390
364
329
312
307
307
317
326
336
324
318
318
324
326
327
308
491
347
328
328
335
345
358
368
387
394
394
365
331
313
306
310
320
331
324
308
309
308
313
315
281
525
318
327
324
331
339
350
364
383
394
395
384
346
322
312
313
326
345
345
328
327
325
329
331
314
487
339
347
339
344
352
360
375
393
405
412
398
363
337
325
324
337
349
346
334
327
330
333
334
323
433
365
348
336
337
343
355
367
384
397
402
392
359
326
316
312
318
329
342
324
316
317
320
319
321
314
459
345
324
324
334
342
355
371
385
391
391
361
328
316
314
311
327
341
325
314
315
314
318
314
273
553
333
320
314
325
326
338
354
372
383
382
360
326
308
294
301
314
333
317
304
302
305
315
306
285
572
317
319
323
333
336
350
363
380
394
384
359
334
317
319
322
344
357
349
344
347
352
356
355
421
436
378
364
372
376
391
405
426
439
446
435
399
371
358
352
357
369
379
365
353
352
352
351
351
309
611
363
348
346
352
357
372
386
402
416
414
393
355
333
320
322
323
330
340
330
321
322
325
326
328
316
425
372
342
325
331
336
346
359
373
388
395
385
354
323
308
305
306
315
318
324
313
308
310
313
314
311
334
406
337
313
316
323
333
343
363
375
384
380
352
319
304
303
305
312
319
327
329
317
317
320
324
324
298
507
349
338
336
341
348
357
372
389
404
411
402
370
344
333
333
341
343
349
354
363
352
348
352
352
356
358
315
592
380
357
357
360
368
373
387
401
410
412
395
359
334
325
322
324
326
325
332
337
339
323
320
320
323
319
287
508
337
325
320
325
331
340
350
367
380
384
376
341
314
304
300
306
308
312
316
319
328
319
311
316
312
314
313
325
416
339
319
323
330
338
350
367
385
393
390
366
333
320
314
317
320
326
335
347
336
326
327
328
331
333
289
568
351
332
335
342
349
359
377
397
407
412
394
361
335
328
330
332
335
339
344
356
344
337
338
335
337
339
325
481
362
336
343
350
358
367
386
401
409
408
385
351
326
322
323
324
326
327
332
338
345
329
326
327
329
330
332
292
562
344
331
334
336
344
351
364
381
394
396
386
352
325
312
312
314
313
316
317
323
329
336
323
323
325
325
330
323
404
369
349
334
338
341
351
363
379
396
400
397
371
338
322
316
319
320
323
323
324
328
332
338
331
328
327
331
330
334
293
572
352
337
336
346
350
360
372
392
404
408
398
366
337
327
325
330
331
337
336
342
347
357
345
343
343
345
349
344
374
423
368
351
354
359
367
377
393
410
417
412
386
350
332
326
326
325
331
331
339
348
341
327
327
330
328
333
294
565
347
337
336
342
345
356
368
383
398
402
388
351
321
314
313
314
318
317
330
336
339
325
322
325
329
330
305
525
345
344
342
347
356
362
377
398
410
417
408
373
346
333
331
333
337
338
349
362
350
342
342
345
346
347
341
418
392
364
349
353
357
363
373
390
406
412
408
379
347
329
322
323
328
328
326
327
325
331
340
338
324
325
324
324
324
327
292
548
355
329
331
338
342
350
364
380
392
398
385
351
325
317
315
317
319
320
324
324
328
325
328
331
335
342
343
334
335
332
333
334
306
521
358
334
335
340
345
352
367
380
388
393
382
347
322
312
310
310
316
313
315
317
319
321
330
324
318
314
319
315
319
285
509
346
320
316
322
325
334
351
364
377
373
354
321
293
283
285
286
297
299
304
311
322
313
312
317
322
325
294
524
349
345
340
347
352
363
377
393
410
416
409
375
344
336
335
336
341
344
353
359
360
347
345
346
348
352
339
458
378
364
351
353
356
360
370
384
398
404
397
368
331
315
309
307
310
311
317
327
313
308
308
309
313
310
282
519
323
319
315
320
328
336
350
369
384
387
378
344
316
308
308
313
325
339
346
331
325
331
333
336
340
317
523
370
342
349
361
367
382
397
414
423
425
400
364
341
336
338
344
353
364
352
345
346
346
346
348
332
479
367
359
350
356
357
362
374
384
396
399
389
358
325
307
304
302
312
322
316
301
296
297
300
304
297
382
339
320
308
306
314
323
337
357
377
383
380
351
319
305
300
310
322
340
329
319
321
325
330
330
314
489
355
350
340
347
357
365
377
396
412
418
412
383
349
340
333
336
345
352
336
332
330
330
331
336
305
537
353
343
340
346
352
360
371
389
402
412
403
371
339
328
322
325
334
343
327
316
317
320
318
323
310
389
357
328
318
319
325
332
343
363
372
378
375
347
315
301
297
299
314
330
323
310
311
314
319
321
322
338
433
352
331
336
343
352
364
382
399
403
403
378
345
328
321
323
333
350
333
325
326
326
328
329
329
325
473
355
332
337
341
348
356
373
388
399
398
375
337
318
310
311
321
336
323
314
317
320
319
322
323
283
567
338
322
325
331
334
345
356
373
384
387
373
335
308
301
298
313
323
320
306
307
302
306
307
309
270
562
324
314
317
327
334
348
363
380
392
396
381
350
326
320
319
332
347
336
329
329
329
332
334
335
297
582
364
341
340
348
357
368
382
398
410
409
393
354
331
327
328
338
351
346
333
333
333
333
336
339
303
565
363
340
341
346
354
364
379
396
405
408
390
351
333
326
325
333
341
347
332
325
324
327
327
324
312
475
338
336
330
335
338
349
359
377
388
396
389
359
328
317
313
318
332
345
340
330
327
333
335
339
340
378
416
368
352
353
360
370
380
397
413
418
418
390
355
339
335
341
347
361
345
335
337
338
339
337
339
341
467
362
340
343
346
354
366
381
398
404
402
372
338
318
314
313
324
339
330
318
316
318
320
320
322
310
477
350
327
332
336
343
352
370
383
395
393
367
332
313
306
306
316
325
327
310
307
310
314
316
316
278
543
340
319
322
328
337
343
359
375
388
391
371
334
312
307
305
318
329
329
312
309
313
313
317
316
343
406
343
327
330
337
344
352
368
384
395
391
366
332
318
315
324
334
338
321
317
321
323
328
328
295
541
353
339
342
345
358
363
375
391
402
404
380
347
328
323
330
339
341
331
324
324
328
331
333
316
477
336
342
339
342
349
354
367
385
399
400
398
363
338
328
328
340
355
350
332
330
332
331
332
320
440
351
349
337
342
347
355
369
382
395
401
392
360
331
319
319
328
357
335
314
319
322
326
331
330
332
447
360
337
340
343
348
368
364
387
399
401
376
343
329
325
332
344
338
321
323
323
334
321
321
288
543
339
326
331
331
340
343
358
377
387
388
380
343
316
305
307
312
327
310
304
303
308
312
314
296
467
319
328
326
330
341
348
366
385
400
407
395
359
335
325
327
335
356
339
329
325
327
329
332
324
450
342
346
338
341
345
357
365
382
395
402
394
361
332
322
316
327
340
334
322
321
323
325
328
325
284
566
345
328
331
340
344
351
364
379
392
395
381
346
325
319
320
329
343
326
319
322
322
325
328
323
389
374
341
332
336
339
348
358
373
389
396
394
367
332
322
313
319
325
338
326
320
321
322
325
326
327
413
350
348
334
336
344
353
370
390
401
411
401
372
343
331
325
335
346
358
344
336
337
339
341
346
314
553
351
354
349
355
357
366
380
396
409
411
399
366
339
331
326
336
349
340
330
327
329
332
331
332
296
551
358
335
336
342
349
358
371
388
398
397
375
340
321
314
312
326
337
327
316
318
319
320
325
313
428
348
338
329
332
340
347
361
375
390
395
387
356
328
317
312
320
329
340
329
323
323
321
323
326
290
526
330
329
325
336
339
348
360
377
389
399
383
349
321
314
312
322
334
330
317
316
312
318
321
318
373
375
343
328
333
340
351
367
382
397
404
400
370
337
323
320
331
340
348
333
328
328
333
332
337
307
548
363
338
341
348
355
369
384
403
409
411
383
348
329
324
329
340
354
335
326
330
328
328
332
326
402
374
351
336
340
343
350
364
378
395
401
398
366
339
322
318
323
331
345
335
321
321
323
323
322
317
420
351
339
326
333
339
349
360
380
394
402
392
358
328
314
310
310
323
332
335
316
311
312
315
316
318
321
456
344
326
333
339
350
364
382
398
408
404
375
342
324
321
322
337
350
335
326
326
327
331
333
294
569
338
334
334
341
343
354
370
390
399
405
386
349
322
314
315
319
330
338
324
318
318
322
322
323
284
567
337
326
328
334
340
347
362
382
393
397
382
346
321
311
311
314
322
337
328
319
320
320
322
323
320
378
385
345
328
333
337
345
360
377
390
400
395
362
331
317
315
316
316
329
334
340
328
328
328
331
334
340
309
534
363
341
344
351
359
368
385
399
412
413
391
351
330
326
322
324
335
342
348
333
326
329
332
330
332
286
575
346
332
337
341
352
364
378
397
406
410
390
357
331
326
324
327
338
351
342
327
329
330
330
333
337
325
488
360
341
343
349
354
368
380
398
404
404
379
340
322
317
318
322
331
343
334
323
324
325
323
330
316
439
349
341
331
337
341
348
362
379
395
399
393
365
331
318
316
319
319
329
342
331
317
320
321
325
325
317
432
344
340
328
333
338
350
360
378
393
398
393
361
325
313
307
308
315
323
337
325
315
315
314
318
324
315
422
350
344
331
336
343
352
365
383
396
404
397
364
334
317
317
319
324
333
345
336
325
327
328
332
333
326
408
376
354
340
345
350
359
371
388
401
407
403
374
341
330
325
325
325
335
349
342
329
324
327
329
330
323
392
368
342
334
334
340
349
364
379
396
400
394
363
331
312
307
309
317
329
339
325
318
318
319
323
325
295
538
328
335
332
340
348
358
373
390
403
408
399
362
332
323
320
322
333
348
342
327
328
328
329
333
331
290
590
348
336
336
340
348
356
372
389
400
402
388
349
324
318
317
318
325
333
343
327
322
322
324
324
328
285
565
341
329
330
333
341
347
364
380
394
397
386
348
322
314
314
314
319
329
341
325
316
313
317
317
320
297
479
323
328
324
327
332
344
355
374
385
396
387
350
323
307
306
308
322
331
339
326
319
321
323
325
331
288
579
351
341
340
350
360
370
386
401
416
416
396
359
335
330
331
332
346
357
352
339
335
336
339
340
339
338
471
362
341
345
350
357
370
385
401
413
413
382
345
330
322
323
326
333
344
327
318
319
320
320
324
299
524
329
333
327
337
346
346
364
383
401
403
391
355
330
318
318
322
333
351
341
329
330
333
336
339
323
473
352
351
342
346
353
361
372
386
400
406
399
364
334
322
319
319
331
348
338
323
324
323
324
326
323
341
410
335
318
323
326
335
347
370
382
389
387
359
325
304
300
304
313
329
321
305
309
311
307
311
313
359
371
335
321
327
336
344
364
381
398
407
401
371
340
323
319
324
335
349
341
326
330
330
332
333
310
504
343
342
337
342
348
358
369
386
399
404
395
358
331
321
319
321
330
340
327
318
323
322
324
324
311
438
340
336
327
325
334
336
348
364
380
385
382
349
318
302
299
304
312
326
320
307
312
309
314
316
281
534
320
322
328
332
342
355
370
389
400
406
395
363
337
329
329
337
348
363
346
340
342
345
345
349
312
585
358
354
354
356
364
371
383
399
411
412
396
361
333
321
321
327
337
346
331
323
324
325
326
328
289
554
337
331
330
333
339
348
362
377
388
394
379
344
315
302
302
307
321
333
318
312
314
314
308
310
273
545
332
325
331
335
343
350
361
374
390
394
382
346
319
309
309
319
333
333
316
314
317
320
317
320
277
568
333
323
327
332
343
352
365
383
390
396
382
347
322
313
309
319
333
336
321
312
313
316
316
318
299
491
332
328
321
326
333
343
353
372
384
390
382
350
317
306
302
306
317
326
318
307
307
307
307
308
303
362
369
324
306
308
312
322
332
349
362
369
364
333
300
284
282
288
296
310
302
289
291
287
290
294
290
342
370
319
300
305
312
322
338
356
373
384
380
356
323
310
309
314
320
336
343
327
323
327
329
330
336
296
597
360
344
349
352
363
372
389
404
419
421
406
367
342
331
331
336
345
355
341
336
340
339
342
346
314
569
359
356
359
361
368
378
390
406
415
420
411
370
344
334
333
337
346
357
343
336
335
339
338
340
304
574
357
346
349
353
361
368
387
398
409
412
402
364
342
335
332
340
349
355
334
328
332
333
335
334
310
514
359
336
338
346
352
362
381
400
407
409
386
349
329
328
330
341
354
335
330
325
328
333
330
306
517
341
339
333
342
344
355
364
388
397
399
392
359
331
320
316
329
344
331
317
317
321
324
325
315
436
342
341
329
329
338
341
357
370
381
383
373
340
308
293
288
295
309
293
278
279
273
276
279
273
351
318
294
279
287
288
300
311
329
343
349
343
317
287
279
278
287
300
288
282
285
289
288
293
300
289
453
320
307
312
320
330
347
361
380
385
385
363
324
309
309
318
336
320
313
311
317
322
325
300
534
335
340
338
346
354
365
379
397
406
409
395
360
339
327
337
345
351
338
335
334
336
337
343
300
596
369
345
346
353
362
373
391
407
412
416
398
359
341
335
343
355
353
341
336
338
339
339
340
297
594
365
342
347
352
359
370
384
397
407
410
391
357
336
328
334
348
343
331
331
332
333
337
337
297
573
358
340
343
346
357
366
378
392
402
401
384
345
324
317
323
331
336
321
315
314
316
320
321
281
562
332
316
326
330
342
352
368
381
393
397
380
350
327
322
330
346
346
335
330
331
335
340
343
313
548
370
347
352
361
368
383
397
416
421
417
396
361
342
340
350
361
358
346
341
342
343
346
346
309
586
373
353
354
359
368
379
393
408
417
415
396
359
338
329
330
340
350
336
327
328
331
325
328
308
475
336
329
319
327
330
339
351
368
381
386
374
338
311
300
298
307
318
335
314
309
312
315
317
321
295
506
351
327
330
335
347
359
379
396
405
403
378
341
329
323
327
343
352
336
332
334
334
337
338
296
592
356
343
345
348
353
366
381
400
409
412
391
354
331
320
321
332
342
346
328
325
326
329
329
332
298
545
356
330
337
341
349
359
375
391
398
400
375
338
320
316
313
324
333
340
326
319
319
319
322
321
283
560
350
326
330
337
342
353
369
388
399
398
375
341
322
318
316
322
331
344
331
322
325
327
326
329
289
567
352
331
334
337
342
356
366
380
397
394
376
337
317
304
305
306
314
327
327
309
307
309
312
316
293
502
330
326
322
332
339
355
366
387
403
405
393
358
334
328
324
333
344
356
343
336
336
338
341
344
315
542
371
345
346
355
361
375
392
407
418
414
387
351
334
328
329
337
349
353
340
335
336
335
336
341
315
521
367
340
344
350
356
366
383
399
408
409
381
344
325
320
320
324
329
336
346
332
326
327
330
329
329
289
547
355
330
332
339
345
354
375
391
399
400
377
346
321
314
310
312
312
321
334
332
315
315
317
317
320
299
480
329
328
319
325
334
344
360
378
392
400
393
361
333
324
320
326
330
344
360
347
339
338
342
346
348
306
601
379
358
362
365
375
385
401
416
428
428
406
369
344
338
334
333
337
348
360
347
337
335
335
334
333
331
350
437
356
332
332
338
344
355
373
384
394
394
365
329
314
308
307
308
310
315
318
328
321
313
318
318
322
322
281
555
351
325
326
334
341
352
368
384
396
398
380
343
321
314
312
315
319
321
328
342
332
324
326
327
329
330
292
558
353
333
334
339
345
353
368
385
398
407
394
357
330
319
320
320
323
333
346
336
325
327
331
329
331
307
511
345
344
337
344
345
357
368
387
402
405
396
360
331
319
318
316
324
325
337
321
314
311
313
315
321
296
484
327
326
314
320
333
343
362
377
398
400
392
367
334
330
320
327
334
352
357
343
335
340
342
341
342
305
570
374
351
355
361
364
382
397
415
427
428
404
362
344
336
335
341
346
357
366
352
343
346
350
349
345
324
500
362
354
337
339
347
351
366
368
388
393
383
350
309
296
288
281
289
286
282
284
288
275
271
271
273
276
263
318
326
290
275
269
282
287
302
320
340
351
348
309
285
269
264
273
270
285
283
298
284
287
289
294
301
304
264
497
349
316
333
330
341
360
373
403
414
416
400
364
335
327
326
337
324
363
367
334
347
354
355
324
352
311
569
388
359
350
364
364
383
395
412
424
425
402
365
341
328
327
336
333
339
357
343
337
337
341
341
345
302
581
363
344
348
352
352
364
378
394
406
408
390
364
329
315
321
323
330
342
349
327
322
322
324
328
327
285
558
344
333
337
342
351
359
378
392
405
410
392
359
336
327
325
335
345
358
351
339
339
338
340
345
331
470
368
361
351
356
363
375
390
406
418
426
420
387
357
343
342
343
353
365
369
356
351
350
352
352
358
320
571
381
360
360
369
374
382
394
414
422
424
400
365
340
334
330
335
340
354
338
329
327
333
329
328
293
564
345
331
335
340
346
360
374
392
403
401
386
352
326
320
321
332
342
352
334
329
330
333
337
335
296
579
363
343
345
350
359
369
386
405
415
415
399
362
340
335
336
345
356
362
347
344
346
348
352
355
318
570
370
363
363
367
376
382
397
420
429
434
424
386
357
344
341
342
346
356
341
332
327
324
323
321
294
500
320
320
310
315
315
322
333
351
358
360
350
315
284
274
269
274
285
295
277
271
270
276
280
281
249
489
311
289
295
301
308
322
338
358
368
372
352
313
294
291
296
309
320
305
300
303
303
309
310
298
443
337
328
323
328
333
343
355
375
391
401
399
369
337
325
323
336
347
347
331
332
334
338
338
343
309
562
357
351
347
351
358
367
379
397
411
416
407
373
346
335
333
343
350
356
340
334
338
342
341
342
298
582
360
342
344
349
357
366
382
397
407
410
397
364
338
332
330
337
353
346
334
334
337
337
340
341
303
574
364
343
347
351
358
369
380
398
405
407
389
352
327
317
315
325
327
310
295
300
294
297
297
284
396
305
299
288
294
296
305
315
333
346
354
344
318
288
273
271
281
294
298
285
279
282
288
289
295
258
528
318
307
311
318
327
340
356
377
389
395
388
357
331
323
323
333
342
350
336
330
334
336
336
338
312
527
351
347
343
348
357
367
378
395
410
414
406
375
342
333
329
329
336
338
348
336
329
332
334
334
336
296
558
345
339
341
343
353
361
374
399
406
408
402
366
338
326
320
322
335
348
338
325
326
329
329
335
335
298
571
365
345
349
354
363
373
387
404
417
418
401
365
344
336
335
346
358
350
337
336
337
341
341
344
299
593
362
346
349
352
358
367
384
399
410
415
398
362
338
330
326
324
328
336
343
342
332
332
332
332
334
333
328
465
361
334
338
346
351
364
377
394
403
403
382
346
327
319
317
320
330
339
339
326
324
325
326
328
329
313
476
346
340
334
342
345
357
365
381
394
404
398
369
335
323
314
319
322
322
328
334
338
322
323
325
327
327
309
457
339
337
326
330
337
347
358
376
390
397
389
361
328
314
311
313
318
328
338
338
325
320
326
328
329
333
292
576
354
334
334
338
346
350
365
379
390
392
376
335
308
297
293
291
297
299
308
295
285
284
281
280
278
239
503
297
279
278
282
289
297
311
330
344
352
341
305
286
274
276
277
282
289
297
311
301
297
297
302
306
310
268
548
332
318
318
328
336
350
365
383
399
404
387
356
326
321
314
321
331
341
347
333
327
327
333
336
336
300
576
348
345
347
357
365
375
392
409
422
425
413
377
350
340
336
343
355
364
350
345
345
345
348
347
315
562
356
355
351
356
364
374
388
406
421
423
413
375
345
335
333
332
341
351
351
336
335
339
338
340
338
321
506
364
340
345
348
356
367
383
398
408
409
385
351
332
327
325
329
336
348
335
330
334
333
337
338
323
447
362
348
337
343
346
355
367
382
400
405
402
370
338
323
313
316
327
336
342
325
322
321
320
325
328
298
533
353
333
334
344
355
366
383
402
413
418
397
360
341
334
336
348
363
365
347
347
350
354
352
359
329
555
382
361
365
370
377
389
405
420
430
426
403
364
343
334
336
344
356
349
334
334
335
335
335
336
296
571
358
333
335
342
348
358
372
390
400
401
384
346
324
314
312
320
332
330
317
316
320
323
323
327
290
546
350
330
329
336
344
351
367
385
396
401
376
337
311
302
303
308
323
329
311
303
303
300
310
308
282
521
335
322
327
335
345
363
379
400
409
414
392
356
339
331
334
347
362
354
348
348
348
352
354
353
378
452
378
358
366
369
380
392
410
423
431
430
398
364
346
341
345
353
363
347
336
339
341
340
343
339
368
426
359
339
343
351
357
368
384
399
405
401
374
339
321
317
320
328
342
338
324
321
321
322
324
321
352
401
343
325
326
333
341
356
367
382
390
384
358
320
301
296
296
302
312
311
294
291
290
292
294
296
257
530
304
297
296
302
309
320
334
349
366
366
358
319
296
285
284
293
312
306
297
294
298
299
305
311
275
552
342
325
331
338
351
362
382
398
411
411
397
358
336
327
327
341
353
350
338
333
335
335
337
338
314
507
348
346
341
343
348
357
370
386
400
403
394
362
330
314
311
315
323
333
319
312
313
314
315
315
272
561
338
314
317
324
335
343
362
377
390
394
376
340
315
310
309
319
335
328
317
317
321
324
328
332
291
580
361
340
343
348
357
367
383
401
412
418
401
367
344
335
336
341
358
347
334
333
336
337
339
336
311
518
359
335
341
344
350
363
374
391
399
401
380
342
323
318
320
331
344
327
323
322
324
327
328
327
346
417
348
331
338
345
352
365
383
397
406
409
380
344
331
325
335
346
354
338
332
333
336
339
341
311
556
352
349
349
354
361
370
383
400
411
417
406
373
343
335
332
339
354
351
338
337
337
337
338
340
298
579
358
341
343
347
355
364
376
394
407
409
394
359
335
327
322
334
340
345
330
326
328
329
331
332
292
563
354
339
340
346
353
362
382
396
406
411
395
358
332
323
322
333
339
341
321
316
318
320
317
322
278
558
322
320
320
332
333
343
357
371
385
386
375
343
317
309
312
324
345
337
324
328
329
333
335
330
425
370
359
350
353
364
371
390
406
419
424
419
388
358
345
342
349
361
367
353
350
352
350
351
354
312
595
369
349
348
354
360
371
388
402
411
409
391
353
327
318
318
328
340
325
313
315
315
316
316
317
294
503
339
313
318
324
333
344
358
371
381
380
359
324
303
298
300
309
323
317
308
308
311
313
316
322
293
524
351
330
336
346
354
368
384
400
410
413
395
360
341
337
336
344
354
357
343
340
343
345
348
350
319
547
354
352
350
357
362
369
382
398
409
417
405
371
342
335
328
334
341
346
329
321
321
324
324
327
304
499
319
333
330
334
342
350
362
383
388
393
383
348
320
306
306
319
335
325
313
312
315
314
320
323
292
526
339
329
332
340
347
361
372
389
397
397
375
340
316
311
318
333
334
321
316
316
316
322
323
301
520
317
332
329
335
343
354
367
386
399
400
390
361
331
317
318
327
343
333
319
320
320
324
323
327
290
570
332
330
329
334
341
351
364
380
391
396
384
352
325
316
317
327
335
344
328
321
324
327
329
331
321
450
354
347
336
341
345
358
369
384
398
402
396
367
335
324
319
324
334
343
328
322
326
328
331
330
334
312
514
358
335
340
344
354
363
377
392
402
401
379
345
323
317
318
329
338
336
321
318
323
323
322
326
289
558
332
331
335
337
343
353
368
384
393
398
383
350
323
312
311
319
337
331
314
314
315
314
320
323
282
569
338
327
331
336
344
356
372
389
399
400
382
346
325
315
316
325
342
332
319
318
320
322
323
326
293
545
355
329
337
340
350
361
381
392
403
402
383
349
329
322
325
331
343
348
335
326
331
333
330
337
300
553
342
335
333
336
341
349
364
379
393
392
384
343
315
301
301
307
318
335
318
306
306
309
311
313
310
380
367
334
319
326
334
343
359
373
388
396
388
361
329
313
311
315
330
340
326
318
320
322
325
325
300
525
335
336
334
336
347
357
371
389
404
408
399
362
332
319
320
327
338
346
332
323
325
328
325
327
307
495
336
341
331
337
343
355
368
387
397
404
393
359
329
317
314
321
332
337
322
316
318
318
322
322
311
435
348
339
331
338
344
350
368
383
402
407
405
368
341
326
328
330
339
348
353
336
330
333
332
338
341
298
588
353
342
346
350
358
370
385
404
415
415
397
364
339
331
332
345
359
356
342
338
338
342
344
345
303
600
360
348
349
353
360
369
387
402
413
416
398
361
335
325
322
330
347
340
328
327
330
330
334
334
298
567
346
342
340
347
351
362
377
394
407
413
404
365
336
324
324
331
339
352
339
329
332
329
332
332
328
384
383
346
333
335
341
351
360
380
395
400
393
367
332
314
310
313
325
340
329
315
313
317
319
320
315
408
354
339
327
331
339
349
364
380
393
399
396
364
333
318
314
325
336
340
325
321
322
325
325
331
316
454
353
345
337
342
347
355
370
387
401
406
400
369
338
325
322
329
340
347
330
326
327
328
331
332
298
554
349
344
347
348
353
364
377
395
406
407
400
357
332
327
323
331
347
341
322
323
323
323
324
329
285
574
341
329
334
336
341
353
367
387
397
398
380
342
321
313
313
323
340
339
323
321
325
326
330
330
296
556
356
331
337
341
350
362
377
392
402
402
383
345
327
318
320
331
344
335
325
321
323
325
329
330
296
549
337
334
333
339
346
354
368
386
398
403
394
361
333
323
320
325
332
343
336
330
333
333
336
338
335
340
451
354
337
339
346
350
361
378
392
402
399
374
337
316
310
310
319
330
333
312
312
311
310
310
313
277
548
319
318
315
323
331
342
357
374
384
389
377
345
323
311
311
320
334
335
321
316
320
323
324
328
307
495
336
339
334
339
344
354
368
384
398
399
392
357
329
318
316
324
334
343
326
318
322
325
323
332
286
560
342
327
333
336
343
352
366
383
395
400
386
351
322
315
315
325
335
336
322
318
320
322
323
324
282
561
336
324
329
331
338
352
363
384
392
395
376
345
320
312
313
327
340
321
315
310
316
316
319
320
341
417
342
326
331
338
348
359
375
394
400
399
371
337
322
320
329
339
350
333
333
331
334
339
340
339
442
382
367
354
359
368
381
394
414
431
435
431
400
367
355
354
360
375
370
355
355
355
354
353
357
313
601
365
353
352
355
361
368
380
395
404
406
389
351
330
319
320
328
341
321
315
315
316
316
319
316
304
467
338
317
320
325
330
345
353
369
378
374
349
311
296
284
294
304
309
290
285
285
287
288
290
251
537
301
290
293
298
308
320
338
355
364
366
345
310
288
283
287
298
304
289
283
280
284
286
282
248
500
290
290
289
296
306
316
333
352
367
374
362
329
302
295
299
311
327
314
308
307
311
310
314
290
484
327
326
324
326
334
346
358
382
395
398
385
355
322
317
319
323
343
330
321
320
326
327
330
332
325
466
354
336
342
345
357
368
381
402
411
409
382
351
331
330
341
355
340
334
332
336
339
341
336
402
392
361
347
348
356
364
378
396
408
416
406
375
342
330
331
336
348
339
330
327
331
333
336
309
528
340
343
337
344
350
361
376
394
405
409
395
362
333
324
329
337
343
324
320
322
326
320
328
292
548
336
334
330
334
342
351
367
379
392
397
379
346
321
310
315
328
339
324
316
320
317
319
320
293
527
327
333
330
333
342
353
365
386
401
406
394
360
336
328
329
344
355
338
333
334
335
340
341
299
593
361
344
346
352
359
371
387
403
411
411
389
354
332
329
333
346
342
330
326
328
330
332
332
294
576
354
335
337
340
350
363
378
391
400
400
379
342
323
318
325
337
340
323
320
319
323
323
328
290
569
353
337
336
342
348
360
374
390
401
398
380
346
326
320
316
326
339
323
311
316
316
320
317
291
519
319
322
317
324
331
342
359
376
385
386
372
342
318
309
311
324
336
321
311
313
317
320
327
291
564
341
335
336
344
351
362
376
395
408
407
391
358
335
324
332
345
344
332
327
330
329
332
332
305
542
345
343
340
346
352
362
376
395
405
410
396
364
337
329
330
338
352
345
334
337
339
340
343
342
337
480
366
346
350
356
363
375
393
407
415
414
387
351
336
333
335
342
344
351
343
333
334
335
336
339
299
568
345
340
339
343
348
358
375
390
400
400
386
352
325
314
313
315
328
336
318
311
310
312
313
316
276
553
334
318
323
326
335
347
363
378
388
387
366
333
308
304
305
314
331
323
312
311
313
316
316
318
299
490
340
321
322
330
338
351
366
383
390
391
366
331
314
310
311
323
329
340
327
317
322
327
326
331
292
551
350
335
336
340
350
362
376
392
402
398
373
343
319
311
313
324
337
329
315
311
314
315
311
315
308
463
339
325
326
335
347
356
375
395
400
399
370
338
322
316
323
336
351
338
330
333
335
338
343
321
508
355
358
353
360
369
378
393
411
425
428
419
385
356
346
344
350
360
373
361
350
353
354
356
359
343
482
373
368
360
363
367
375
388
404
417
422
414
381
352
337
334
337
342
357
349
335
333
338
337
337
338
352
427
351
332
337
340
346
356
372
385
390
386
356
322
302
297
301
311
324
312
293
295
294
299
300
284
454
308
311
306
317
326
337
350
371
386
391
383
349
322
313
312
320
334
340
326
321
323
322
327
327
322
476
351
333
339
349
354
367
379
401
405
402
373
341
321
324
325
335
351
337
328
330
323
335
338
320
484
356
348
344
346
353
366
378
396
412
418
408
371
345
335
331
339
357
350
337
335
340
335
337
338
307
540
361
342
348
350
358
366
389
399
408
402
375
342
340
327
317
337
356
336
330
329
334
334
335
310
511
345
328
334
339
345
361
374
388
391
385
362
325
305
308
314
327
318
303
306
309
306
311
313
294
497
337
315
320
321
335
350
367
386
392
390
365
332
317
315
323
337
331
321
318
319
320
320
313
392
365
337
323
330
332
343
355
372
387
391
383
352
323
313
315
320
333
324
315
312
317
319
321
316
382
368
338
323
328
336
345
361
377
390
393
390
357
328
311
312
315
330
323
312
308
315
315
312
315
329
413
336
323
323
335
344
354
372
388
392
388
362
329
318
312
323
335
347
327
324
323
324
327
329
296
542
353
335
337
343
352
367
382
397
405
400
379
343
325
318
326
336
345
331
323
326
327
328
332
314
487
343
342
334
341
347
356
370
386
400
402
392
357
329
319
315
318
326
341
328
319
319
318
323
326
309
468
340
336
328
331
340
349
363
380
392
396
385
355
323
313
312
312
316
323
331
333
322
319
323
323
328
322
382
377
342
331
334
339
349
361
377
390
395
394
367
332
319
315
316
323
329
342
328
322
322
326
326
327
306
497
337
336
333
341
343
354
366
385
393
399
389
353
325
314
311
314
328
340
329
312
313
311
312
318
290
521
323
328
326
327
341
351
366
384
395
398
382
353
329
319
319
327
339
350
334
327
327
328
334
336
310
528
365
339
343
347
357
369
386
403
411
408
385
351
335
330
332
340
355
345
335
332
333
335
338
335
369
422
359
341
346
349
356
369
385
397
403
397
367
336
323
319
322
330
343
331
322
321
322
323
327
325
335
445
352
334
338
344
351
360
376
391
396
395
371
339
321
317
321
326
338
327
318
320
323
324
325
322
355
396
346
332
336
342
349
360
373
389
398
396
367
334
319
315
319
321
328
336
327
319
317
322
318
322
315
408
347
339
329
334
337
349
359
376
388
395
391
359
335
317
317
316
328
344
336
323
323
328
328
333
323
454
350
352
347
353
362
372
387
407
416
421
413
381
352
339
334
343
348
363
347
337
337
338
337
339
338
393
396
362
345
347
352
360
372
388
402
405
399
368
337
321
318
318
328
336
343
327
315
323
325
316
315
283
513
327
316
317
321
333
338
356
374
385
382
370
338
309
291
289
293
301
314
305
296
298
302
301
305
267
529
331
311
311
318
329
335
352
372
388
388
369
333
309
301
298
304
311
323
309
301
300
305
302
304
295
398
343
317
302
308
312
318
333
350
362
369
359
330
299
283
277
280
287
298
305
287
285
286
291
290
294
253
538
322
299
305
306
317
326
342
359
372
374
357
323
298
290
290
295
297
308
322
312
304
307
311
319
317
305
440
346
335
325
331
339
353
363
380
399
406
404
373
343
332
331
335
339
349
360
364
354
355
359
361
364
364
366
491
392
368
369
374
381
390
406
423
430
427
399
364
347
340
338
339
348
354
357
342
340
341
341
340
342
318
521
363
335
337
343
349
357
370
386
394
395
371
334
315
312
310
312
313
322
334
328
319
321
323
326
329
307
464
351
335
330
334
341
349
364
376
392
400
391
362
331
323
313
316
321
327
336
334
317
317
321
320
326
320
406
349
340
326
331
338
342
355
369
381
391
384
358
326
314
312
308
320
334
343
327
321
322
328
330
333
293
563
352
335
336
340
347
359
374
392
404
409
390
356
336
326
322
328
334
351
342
332
333
334
336
338
338
353
443
365
343
347
350
358
370
386
400
409
406
380
345
328
324
324
328
336
350
339
331
332
335
336
339
336
390
403
356
341
344
351
357
371
383
396
400
400
370
335
326
313
318
319
331
340
330
317
322
322
320
321
297
534
329
332
328
332
338
348
368
383
394
395
386
352
327
314
316
321
333
347
334
324
323
328
330
333
300
548
340
336
339
341
348
359
373
391
402
403
392
354
330
320
317
323
335
345
331
320
325
327
325
330
317
453
359
349
337
343
354
361
378
397
413
416
412
382
349
340
339
344
352
359
365
355
345
345
345
347
345
306
572
364
337
337
337
342
345
354
371
377
371
356
318
287
272
268
272
277
284
280
264
264
265
265
269
266
301
344
296
271
280
285
296
310
329
346
353
353
326
296
283
282
288
302
316
308
300
303
304
308
312
315
341
414
346
326
329
338
346
361
382
395
402
402
374
340
324
321
324
332
347
339
328
328
330
334
335
336
337
476
363
341
344
350
358
370
386
402
408
409
382
348
329
326
326
335
340
347
330
329
330
330
331
335
312
508
355
345
342
347
352
361
375
391
403
410
404
373
343
332
327
329
331
338
351
342
335
334
335
340
343
331
444
377
361
352
355
360
368
382
396
407
420
408
381
348
337
324
334
327
344
343
323
322
319
322
318
320
287
530
325
323
321
329
336
350
364
381
395
393
385
356
328
316
316
325
340
345
331
327
328
329
331
337
298
561
367
338
342
347
357
367
384
401
408
409
386
349
329
323
326
336
348
341
329
326
329
329
331
330
321
487
359
333
337
342
350
361
377
392
400
398
373
339
322
317
317
325
338
334
320
318
322
323
326
327
286
570
354
330
333
338
348
358
371
387
396
400
385
350
326
319
319
320
327
330
339
328
324
326
328
331
332
287
560
355
335
337
343
351
359
371
389
402
407
389
355
328
318
320
320
327
336
340
322
321
319
321
325
324
288
522
345
324
328
337
341
357
368
388
395
395
373
343
316
313
309
319
332
337
319
314
316
317
319
323
287
536
353
327
334
338
347
360
374
392
400
401
380
344
324
317
318
327
337
345
329
326
327
331
332
329
294
548
350
334
334
338
343
354
367
383
399
401
389
353
328
309
308
311
317
337
328
318
315
313
321
320
282
540
347
332
336
345
353
363
371
391
403
406
388
347
324
315
313
319
332
337
331
328
335
335
333
331
303
527
356
343
345
354
362
373
388
403
413
408
388
354
337
337
327
334
350
338
331
320
327
328
332
296
548
333
338
336
341
350
357
371
391
400
402
384
352
325
316
315
323
338
334
317
319
316
319
320
308
444
340
335
329
336
340
354
366
386
398
404
399
368
340
330
328
337
352
341
331
331
334
336
338
322
462
355
352
344
347
352
360
376
387
400
401
393
360
332
320
316
320
326
306
298
296
297
300
300
300
315
396
320
300
306
312
320
334
349
361
370
366
345
313
296
294
306
321
308
299
296
305
306
308
296
454
323
329
322
328
335
350
361
382
395
400
391
359
334
322
324
337
350
338
334
332
333
338
341
347
325
524
368
349
352
362
371
385
397
413
421
419
399
362
347
339
347
356
361
345
338
340
339
342
344
310
574
354
347
348
353
362
370
381
397
407
410
396
363
338
331
331
338
348
344
333
332
332
334
335
337
299
564
353
341
343
347
354
362
375
389
399
400
386
354
333
328
329
337
347
332
325
324
328
330
330
311
463
330
336
330
338
340
348
359
376
389
395
384
358
328
315
313
325
336
339
320
317
319
321
321
325
336
417
345
334
338
344
354
368
384
396
403
399
373
342
324
321
327
342
338
325
324
322
326
328
330
318
475
351
332
337
344
354
364
381
396
400
397
373
340
324
319
322
333
345
333
323
324
324
329
331
317
453
346
344
337
340
347
355
368
385
396
401
394
361
332
320
318
319
329
338
336
325
324
322
324
327
319
405
360
342
332
336
344
350
364
379
393
402
399
367
338
322
322
320
333
345
336
326
325
326
334
336
337
361
416
355
344
351
356
364
378
392
409
414
406
380
351
333
333
332
345
355
357
340
337
336
337
339
327
450
353
351
341
347
350
360
377
393
403
409
396
367
335
323
320
325
335
346
330
321
320
321
326
326
290
557
335
333
332
337
344
353
369
385
395
399
385
351
326
316
315
318
327
342
336
322
320
323
324
325
300
506
333
334
330
334
340
352
364
381
392
397
383
348
322
314
310
314
320
331
340
324
316
318
321
320
323
285
551
343
325
328
334
339
350
365
381
393
394
377
344
323
314
316
317
327
338
334
321
323
324
325
327
316
408
347
342
328
336
341
350
364
374
396
400
390
358
325
311
307
309
317
332
334
315
315
312
313
314
319
316
452
347
327
331
340
349
362
382
396
406
401
377
339
324
319
320
329
342
347
330
322
327
329
328
330
315
496
356
333
335
344
352
363
378
399
406
400
376
341
324
318
319
324
333
342
346
332
327
329
331
330
334
303
525
356
335
337
343
348
359
376
391
401
401
380
344
324
319
318
321
330
342
338
327
327
326
328
330
324
393
375
352
338
341
347
354
365
381
396
405
397
370
336
325
321
322
327
332
346
334
326
330
331
331
336
298
560
343
343
343
348
355
369
378
402
408
414
398
362
338
329
327
330
343
357
346
334
336
337
339
340
320
498
342
350
345
348
356
365
376
395
408
410
400
364
337
325
325
325
335
348
340
325
326
328
328
330
329
335
446
350
332
335
341
350
360
376
392
400
395
368
337
321
315
318
321
330
339
335
322
322
324
324
326
322
368
386
341
327
330
336
342
356
373
386
393
392
362
329
316
311
312
316
318
323
326
341
330
323
326
329
329
331
295
550
352
333
337
342
350
357
373
392
401
403
386
349
328
317
320
319
327
336
345
328
321
323
324
326
328
291
552
323
331
330
335
343
353
367
384
397
401
386
350
327
319
316
318
331
345
338
326
323
327
328
330
323
418
362
349
336
341
347
356
369
386
400
405
400
367
336
325
321
323
328
338
351
338
329
330
331
333
335
317
484
341
345
340
344
350
358
370
388
400
406
398
366
337
326
324
325
327
336
349
345
334
333
338
335
337
335
388
389
352
338
343
346
351
366
379
398
400
401
368
336
320
316
314
315
317
336
324
312
314
315
314
319
313
358
371
330
317
324
329
341
350
367
384
392
389
357
328
315
310
309
323
338
336
324
320
322
324
327
329
290
560
349
331
333
341
347
356
373
390
398
402
382
343
325
319
319
326
336
347
334
326
327
328
329
332
331
313
503
354
337
341
349
355
363
380
395
405
404
383
349
331
325
326
329
335
344
352
336
330
333
335
335
338
300
558
356
338
340
345
351
360
376
392
400
403
381
348
325
316
313
318
326
339
337
321
319
319
318
318
324
291
548
326
327
325
331
341
347
365
382
393
395
381
347
321
314
308
313
323
337
331
319
318
319
318
321
324
292
526
347
325
330
334
343
354
370
386
395
395
372
338
318
315
313
319
327
341
334
324
324
328
328
329
336
298
554
357
337
339
346
354
364
376
393
404
404
385
347
330
318
317
320
331
343
332
321
318
320
320
324
326
318
454
338
324
331
337
347
357
371
384
396
392
370
331
318
311
312
322
334
338
324
315
315
318
317
321
297
509
323
331
327
332
339
348
365
380
394
396
387
354
324
315
313
318
329
342
330
320
322
322
323
326
327
320
475
354
332
337
345
351
363
378
394
400
401
375
341
322
318
319
323
332
346
331
323
322
325
326
327
327
339
435
353
337
338
346
357
366
381
398
407
404
380
341
323
313
320
321
331
331
317
309
307
307
311
308
277
543
318
310
314
322
328
343
357
374
388
388
374
335
314
310
308
325
340
331
320
317
321
324
327
330
350
434
356
339
343
349
362
374
389
406
412
409
381
348
335
328
337
346
356
341
337
336
341
340
343
340
401
401
362
347
352
359
367
380
395
410
417
413
384
350
333
331
334
343
356
343
335
336
338
338
340
340
337
474
362
341
343
350
357
366
384
398
406
405
378
345
329
323
324
333
346
337
323
326
324
324
327
327
290
567
335
330
334
337
345
354
368
384
392
396
380
344
323
314
311
325
336
335
320
318
315
321
320
327
288
551
344
333
337
344
351
363
381
399
406
409
387
351
332
327
325
338
351
344
333
330
332
333
333
336
302
550
355
336
341
346
353
365
378
394
402
403
380
343
325
321
320
328
337
345
330
321
321
322
323
327
300
502
330
336
333
336
342
350
364
381
394
399
389
355
329
319
315
316
325
336
336
323
321
322
327
323
327
291
548
332
328
330
334
342
351
361
381
392
393
379
347
321
310
309
314
327
339
322
317
316
319
321
327
322
372
379
349
331
340
343
353
367
379
396
401
396
365
334
321
316
317
322
331
347
334
325
324
327
327
330
325
380
377
348
333
337
342
350
362
379
393
400
395
370
336
320
