50
340
336
337
339
301
534
405
334
334
344
353
364
386
394
395
374
335
326
320
327
335
343
333
331
334
336
270
587
401
326
337
342
355
371
390
394
390
362
328
320
321
325
339
338
324
332
333
332
278
517
376
331
335
343
353
376
387
391
383
352
326
318
322
324
345
333
329
328
332
327
390
404
343
331
342
347
363
384
399
397
382
344
328
325
329
336
349
341
332
338
340
318
475
407
341
336
346
354
362
386
402
393
370
341
326
323
327
330
339
336
329
338
339
295
540
413
334
334
348
350
364
381
390
388
361
325
310
305
311
319
325
316
313
316
321
253
562
388
317
320
331
342
362
377
387
382
354
329
317
322
326
344
340
327
334
339
332
348
446
362
340
347
354
371
387
402
402
388
353
332
329
336
333
348
337
327
333
335
303
504
407
329
328
336
346
358
380
389
390
366
332
321
320
324
333
339
329
333
335
333
263
594
407
323
333
335
350
363
384
386
384
355
327
320
321
326
341
330
329
328
332
318
432
401
334
328
335
347
358
378
388
390
371
339
318
316
322
337
340
330
331
332
336
269
557
389
327
338
347
357
382
397
406
394
358
334
328
334
345
357
345
345
339
346
309
495
412
339
336
342
350
360
379
388
385
366
332
320
319
322
329
336
324
323
329
325
262
539
379
320
325
332
345
362
379
381
375
340
316
314
310
320
334
318
317
323
322
283
543
391
320
325
330
344
356
382
388
384
371
329
311
311
324
340
334
329
326
332
329
305
457
362
335
338
349
364
381
394
395
384
349
326
321
329
335
349
344
335
341
342
294
569
421
334
341
351
357
372
391
399
399
371
343
326
331
338
350
344
337
337
345
341
300
491
377
336
341
347
360
375
388
393
385
352
330
323
331
332
346
339
336
338
338
293
549
421
325
330
337
345
363
381
386
390
369
335
325
326
326
342
338
337
343
334
332
395
422
349
330
340
344
361
375
388
393
373
345
319
323
321
341
330
325
324
330
326
333
412
351
326
330
339
351
373
382
384
368
339
318
317
321
336
334
325
329
333
337
268
536
389
327
338
344
357
372
387
389
380
348
323
319
322
328
341
332
332
334
336
281
571
412
320
326
329
341
364
379
388
388
365
334
321
329
332
346
339
338
342
343
315
493
424
343
341
348
357
372
387
395
399
376
346
330
327
330
346
340
336
336
339
330
407
430
350
340
345
352
362
379
387
390
374
339
320
322
324
339
340
330
330
330
330
315
433
365
330
339
346
357
375
393
392
377
346
321
318
326
340
346
336
334
338
342
272
544
395
330
338
345
352
368
386
392
382
352
324
321
319
323
340
333
328
328
332
314
447
418
338
335
337
349
361
379
389
390
372
340
322
322
324
340
342
334
334
339
337
305
488
373
333
343
350
361
379
392
397
380
348
327
323
324
336
344
334
333
337
339
277
544
394
333
336
342
360
376
393
398
390
355
332
318
324
332
344
333
329
327
331
273
578
396
329
335
341
354
368
389
394
390
361
331
320
324
329
345
339
336
335
337
317
471
412
333
334
340
349
363
383
392
392
373
337
321
323
329
341
343
337
339
341
337
322
462
364
334
338
347
360
377
387
392
384
341
319
319
319
330
342
329
327
335
338
272
582
405
332
340
345
353
368
386
395
390
357
325
318
322
323
340
332
324
330
336
313
461
397
341
334
343
348
364
383
393
392
373
339
321
321
322
341
348
327
329
331
335
270
554
387
331
336
344
356
374
390
399
387
353
326
321
321
327
340
334
324
331
331
329
338
437
357
329
337
343
357
375
389
390
377
341
318
316
317
324
337
332
331
325
331
319
423
411
341
329
337
344
360
378
391
389
378
337
321
320
325
328
338
332
331
338
342
293
538
420
332
338
342
350
359
381
391
390
372
333
319
319
321
337
342
328
330
331
338
279
534
390
329
338
344
358
373
394
396
389
359
328
324
323
328
344
342
334
336
338
334
377
419
353
335
340
350
363
383
395
398
380
345
326
322
324
328
343
333
325
332
333
295
518
404
325
329
335
342
356
373
386
384
363
329
316
313
319
325
336
327
328
330
335
283
550
408
326
330
339
345
364
379
388
392
376
337
326
324
330
336
343
334
331
336
341
270
565
399
327
336
342
354
371
389
395
393
358
335
325
324
332
346
345
334
336
342
338
294
497
377
333
334
348
358
379
401
399
376
352
326
323
326
334
346
347
337
341
339
336
269
561
394
344
343
346
358
375
389
400
390
353
326
317
322
323
337
347
329
326
331
331
273
586
407
327
334
341
351
369
387
394
393
365
336
323
323
322
337
342
328
333
334
335
268
573
397
325
331
341
347
372
384
390
387
360
328
317
316
320
334
340
324
327
321
333
263
560
387
324
333
344
354
374
391
397
391
359
328
323
326
332
341
347
337
334
337
338
276
591
401
331
337
342
350
363
387
393
386
359
329
316
316
320
331
343
329
328
333
335
274
569
407
328
332
340
350
363
386
391
396
371
320
320
323
332
333
341
338
334
327
334
276
565
403
327
331
338
348
361
391
388
386
366
324
316
313
318
330
336
324
330
332
328
268
567
397
322
325
337
348
366
385
392
390
363
329
318
318
329
340
346
334
332
338
342
277
595
404
331
339
342
354
371
387
394
391
362
332
316
323
326
338
342
333
334
335
337
275
591
406
329
335
341
349
369
388
393
390
365
328
325
323
328
338
343
334
332
335
334
267
586
404
333
343
337
351
368
384
397
388
365
328
321
323
324
341
345
338
332
335
339
271
586
410
331
348
348
360
378
387
400
394
362
332
322
322
324
342
336
329
333
335
344
282
507
382
333
339
345
361
376
396
395
388
357
330
322
327
330
354
336
336
339
343
340
331
450
364
340
341
354
359
383
396
398
386
349
332
326
326
334
348
344
338
344
340
343
307
496
373
333
342
351
361
380
394
395
384
351
324
320
323
329
337
344
334
339
336
339
274
568
392
330
338
343
353
370
390
393
384
356
324
313
321
317
334
334
324
324
331
328
258
568
393
321
330
332
349
361
375
387
380
356
327
314
309
318
330
335
323
325
328
331
268
579
391
321
327
334
345
363
380
395
381
357
329
318
318
328
332
342
330
330
330
339
281
567
405
324
332
336
346
360
377
387
386
361
321
318
314
323
330
339
337
332
334
337
315
463
416
338
332
348
356
365
382
395
398
378
345
322
328
325
330
342
339
329
336
338
333
367
425
351
335
338
348
360
380
389
393
382
348
325
318
320
326
343
334
323
332
337
326
363
417
346
329
335
348
356
382
389
393
376
350
323
328
327
337
348
341
335
342
336
340
309
482
365
337
338
350
355
375
389
396
381
347
319
319
319
323
339
339
330
330
336
337
275
538
385
328
335
341
355
371
388
393
388
355
329
322
325
327
343
344
335
338
338
342
272
560
395
329
337
341
358
372
387
394
388
356
330
321
320
328
341
337
330
330
334
336
270
558
392
325
337
340
350
369
389
389
382
352
324
316
318
325
342
341
329
334
337
338
268
568
388
330
335
346
355
377
392
389
390
354
329
321
325
332
340
340
330
335
337
335
270
581
397
332
334
340
352
369
385
393
383
358
326
320
328
327
338
341
328
333
335
338
265
553
389
325
332
336
347
365
378
387
379
349
322
313
317
323
337
327
325
329
328
326
337
431
353
324
333
346
353
373
391
394
378
347
327
322
328
336
351
339
337
339
340
321
479
413
340
339
344
351
367
384
394
396
374
340
324
325
329
339
344
335
335
338
339
282
584
412
329
333
340
349
368
383
388
386
362
331
327
327
327
343
343
334
334
338
334
265
546
381
318
326
334
349
365
385
386
386
349
317
315
319
324
341
329
327
328
331
313
470
405
332
331
339
348
362
380
392
389
374
338
320
319
326
337
339
330
332
336
339
271
592
404
328
339
344
353
374
389
392
391
359
329
325
327
335
347
339
334
337
340
339
319
471
363
334
339
347
359
376
387
391
381
354
330
327
333
337
350
340
335
337
334
303
500
412
327
327
336
343
358
377
384
385
365
331
316
320
327
338
338
326
328
333
329
281
501
375
326
331
339
356
329
379
382
372
343
323
319
326
335
345
337
333
335
338
293
561
413
332
336
343
352
368
388
394
391
367
332
323
325
331
344
342
331
335
339
339
291
508
375
332
335
343
353
372
389
390
383
349
323
320
324
332
342
330
328
329
332
286
542
411
328
332
337
349
362
380
391
388
367
332
317
319
324
338
333
328
330
330
331
305
459
362
330
336
343
356
369
383
386
374
344
318
317
319
331
331
325
326
327
332
265
567
404
329
334
346
353
373
389
388
388
360
331
325
330
331
346
338
333
336
337
315
474
420
338
335
342
350
364
382
391
392
376
342
322
326
329
343
345
332
336
340
332
358
425
349
331
338
344
358
374
389
388
375
340
319
317
325
338
336
324
326
335
326
353
411
352
327
335
343
362
375
383
390
368
345
318
311
320
338
339
333
334
334
340
324
452
366
336
339
351
358
378
393
395
384
348
328
329
334
348
344
336
338
342
343
288
529
385
336
342
349
361
375
386
394
381
348
325
322
328
340
341
330
332
337
338
273
576
393
328
334
343
354
371
386
391
384
359
326
328
332
336
352
340
337
340
342
288
567
407
328
338
342
355
369
383
388
384
362
327
319
327
331
342
330
326
332
325
273
559
392
323
325
328
341
356
374
380
375
354
323
313
320
324
342
330
332
330
336
310
484
397
336
331
339
348
363
379
390
386
366
336
319
320
325
338
335
331
330
338
333
287
501
369
331
338
342
359
373
385
389
380
346
325
319
323
331
342
337
335
339
340
283
566
412
330
334
340
352
369
385
394
392
368
335
329
331
334
344
338
331
335
332
334
327
432
356
329
330
341
353
376
382
385
373
338
319
312
315
327
330
322
322
329
322
264
574
391
320
323
332
346
361
364
380
374
348
318
316
315
325
342
335
327
331
334
331
347
442
350
337
339
346
360
386
391
399
382
344
328
325
329
333
346
340
335
343
341
279
595
411
330
334
348
355
371
388
401
391
369
331
322
327
331
344
343
336
340
346
344
338
460
371
337
344
359
370
383
400
400
386
351
325
327
330
334
346
335
333
336
341
283
563
405
324
330
332
345
361
380
384
383
355
325
313
312
318
334
327
320
319
329
329
312
446
356
331
334
343
358
375
392
394
385
347
328
322
332
335
350
341
337
340
345
313
489
416
336
341
346
354
369
386
397
399
374
340
329
325
335
333
349
342
333
336
338
290
555
414
329
335
341
350
365
384
397
387
369
332
319
322
323
339
338
334
332
333
336
265
577
399
321
327
334
350
364
378
387
385
358
316
318
320
321
338
334
329
327
330
331
272
512
370
325
333
339
351
373
388
394
384
352
329
325
328
331
349
347
339
339
343
340
340
447
361
336
345
349
365
381
397
400
384
349
329
327
327
333
347
344
339
338
342
335
309
473
370
336
343
349
363
377
397
399
390
361
330
331
328
330
340
341
328
329
332
330
267
531
378
321
328
335
349
363
384
385
380
350
320
315
315
320
330
337
321
326
325
325
257
578
387
320
331
340
348
369
387
392
388
359
329
320
323
332
338
347
336
333
333
341
285
573
412
332
334
342
355
367
390
397
393
368
334
323
322
332
329
347
341
335
338
340
330
386
432
355
338
345
358
367
383
399
403
389
350
327
322
327
326
338
335
328
331
331
328
269
538
380
327
333
334
351
364
389
390
386
350
326
317
317
322
335
342
328
329
328
335
265
586
393
329
336
346
358
375
393
396
393
363
334
328
329
334
341
348
340
339
340
340
289
576
415
332
339
346
354
370
390
399
394
374
337
326
328
333
336
349
343
338
339
345
333
403
435
350
340
345
354
365
383
392
394
379
345
320
321
328
325
341
330
328
331
329
323
363
415
341
324
329
339
351
371
379
388
374
335
317
307
319
324
336
323
321
324
324
309
442
398
333
323
334
343
358
380
392
391
374
340
318
325
327
334
347
342
335
341
341
320
469
427
344
343
349
357
372
393
406
405
386
347
333
335
348
346
360
351
357
355
351
323
499
431
336
334
342
348
363
383
392
386
371
330
314
315
323
330
336
323
324
322
326
265
584
398
319
323
333
345
352
375
380
379
353
324
313
314
319
337
332
326
328
328
333
255
580
391
323
331
338
350
371
386
391
389
356
322
320
321
325
341
339
330
333
337
335
261
556
385
329
332
342
350
371
386
392
384
354
326
320
330
329
343
346
340
345
339
347
291
508
378
338
340
344
347
364
372
377
371
338
317
309
313
320
335
327
324
325
330
327
364
423
345
327
336
346
360
382
389
395
382
344
318
321
325
332
343
330
333
337
343
309
521
406
337
338
340
349
365
382
392
393
370
337
327
324
331
339
346
336
337
338
340
284
589
414
330
336
343
353
368
383
394
393
368
329
321
320
324
330
335
325
328
329
332
266
588
406
326
332
339
350
365
383
388
388
363
329
320
320
325
337
339
327
329
332
335
273
532
386
330
337
345
361
375
386
390
385
362
330
325
329
332
349
342
337
339
341
328
417
416
343
336
342
348
362
378
391
391
377
342
319
318
327
339
342
333
332
337
337
269
587
406
328
331
342
353
381
403
410
407
376
347
334
333
326
339
330
324
323
328
320
341
431
343
323
332
338
352
375
384
395
376
343
323
321
329
338
359
349
350
356
359
288
607
434
343
350
358
367
383
395
405
400
369
338
330
333
335
347
344
337
340
340
340
317
471
370
334
341
356
361
372
389
391
384
346
323
317
321
326
331
321
323
325
324
268
564
401
316
322
327
341
354
374
378
379
350
320
313
314
319
336
329
325
324
330
326
307
440
349
319
332
340
353
369
388
388
376
343
322
318
321
331
344
340
331
337
337
309
500
411
333
335
341
349
366
385
392
398
373
338
322
324
331
341
346
339
336
338
343
267
598
404
329
334
348
355
371
389
395
389
360
328
323
330
329
341
339
335
334
333
339
279
511
378
329
329
337
348
365
382
388
382
343
322
313
319
320
337
323
320
327
327
291
517
403
326
327
335
342
361
378
388
389
366
332
320
320
331
337
347
334
330
335
341
265
591
401
330
333
343
356
373
390
395
394
368
339
329
335
340
354
347
340
341
341
338
308
472
361
331
337
340
355
377
389
396
379
347
320
318
322
330
339
330
327
327
330
312
467
410
338
331
337
345
358
375
384
386
367
333
318
322
326
333
344
337
332
334
337
284
569
412
331
334
345
350
371
387
398
402
376
346
331
331
339
343
358
345
344
354
358
292
618
428
345
351
347
358
374
393
406
398
370
340
327
328
333
345
345
335
324
330
334
270
586
403
320
329
330
340
356
378
384
382
357
318
313
319
320
329
341
329
324
330
332
265
571
393
320
329
331
345
360
376
387
380
354
319
313
313
327
330
342
323
327
329
331
269
585
397
328
336
340
356
373
391
401
397
363
335
330
327
335
344
357
346
340
344
344
297
560
415
339
348
345
356
373
387
398
400
374
344
332
335
343
341
356
352
341
343
347
319
461
428
338
338
341
350
360
382
392
394
372
337
313
315
323
321
338
328
322
326
324
303
475
395
318
321
326
339
346
370
380
382
365
327
310
309
311
319
330
321
321
322
326
291
512
398
325
328
335
348
366
388
398
400
374
342
329
327
338
335
355
352
339
347
343
319
476
416
342
337
344
352
369
390
398
397
380
345
328
330
337
342
359
356
346
351
352
328
465
428
337
339
345
344
360
373
388
389
372
328
309
313
311
319
339
321
319
322
321
277
549
397
316
321
327
337
350
367
388
383
359
324
317
317
321
338
338
333
327
339
339
267
598
398
333
336
345
355
373
387
395
388
358
324
319
321
329
345
340
332
337
334
335
298
487
362
333
340
348
361
376
389
394
386
344
320
315
326
329
343
332
331
324
330
303
469
404
332
330
339
350
361
380
389
394
374
338
326
328
329
335
343
333
335
341
341
268
596
409
333
340
347
359
375
392
397
393
357
329
322
324
326
344
337
329
336
337
332
361
425
358
332
337
348
360
377
389
392
383
346
321
322
328
336
353
355
319
335
337
271
586
419
326
341
345
347
364
383
392
393
361
324
318
318
322
349
340
322
333
327
325
356
425
339
318
327
337
353
370
381
387
367
331
313
312
326
328
343
329
331
335
342
273
599
418
329
337
343
358
369
388
393
390
357
324
311
317
321
337
330
320
324
320
327
274
494
364
325
336
342
360
378
396
398
392
354
326
325
333
330
348
343
334
338
340
329
398
439
349
337
347
354
364
381
391
394
382
346
326
323
330
338
351
336
342
345
347
278
595
419
337
349
351
367
374
394
397
393
368
337
318
324
325
345
332
325
330
330
321
404
400
343
324
330
344
356
382
388
393
374
332
318
317
322
334
346
327
333
336
339
267
581
404
327
338
343
356
371
389
398
391
364
322
316
317
320
339
336
329
324
333
337
312
456
359
327
337
341
359
373
390
392
383
344
321
319
323
335
343
331
330
333
337
280
566
411
328
334
337
351
364
378
389
388
371
335
321
318
325
347
341
332
331
341
336
335
439
356
327
332
340
351
363
388
389
377
342
314
314
319
328
334
321
321
321
326
259
554
384
326
329
339
348
367
388
390
383
347
321
319
318
322
339
326
327
329
335
299
516
403
334
337
346
355
368
388
400
404
380
340
332
325
330
344
344
332
332
335
340
279
521
377
326
340
343
354
370
394
394
385
354
323
318
322
328
345
327
331
332
335
293
526
414
333
334
340
350
360
384
391
392
371
334
323
318
322
338
337
328
328
333
333
282
475
370
326
331
343
356
371
388
395
383
345
323
318
323
329
347
333
322
336
333
286
545
400
324
327
335
344
355
381
390
390
362
332
317
323
320
339
338
330
330
338
336
274
547
383
334
337
342
359
373
392
399
386
356
326
317
324
328
347
339
331
337
343
324
428
425
343
334
340
349
363
382
399
400
377
337
326
316
319
328
337
327
325
326
335
266
571
406
319
325
329
342
359
383
387
387
358
327
311
312
321
334
325
323
322
326
319
342
427
336
316
321
328
343
369
380
387
370
336
315
317
321
326
340
332
331
331
340
291
555
412
334
339
343
348
371
395
400
398
376
336
322
328
331
335
349
342
336
341
345
292
566
422
334
342
348
363
370
388
398
400
377
336
326
325
332
336
342
336
329
338
336
268
587
405
329
332
336
349
370
384
392
386
363
329
317
313
320
334
336
319
321
330
329
265
520
292
212
214
218
232
260
284
297
295
273
249
256
257
275
293
306
298
312
320
327
270
578
401
355
366
389
414
434
449
461
454
416
383
382
382
378
385
398
381
380
378
382
339
527
441
351
350
354
359
368
391
400
396
375
337
318
320
327
329
348
347
348
335
347
347
293
489
373
331
335
347
353
372
391
392
378
344
323
317
316
326
334
342
325
333
337
339
265
585
402
324
332
338
351
367
378
391
386
356
325
314
316
322
328
341
328
325
324
325
301
490
397
336
334
333
343
370
387
399
398
384
337
325
323
329
331
350
350
336
338
340
346
284
551
390
341
347
355
362
382
399
404
400
365
349
331
327
332
336
349
346
340
345
343
303
510
413
324
325
338
339
349
365
374
390
374
335
319
314
315
329
340
331
323
324
326
332
318
431
357
322
331
331
355
366
381
387
381
341
320
306
314
321
335
331
323
322
329
326
290
454
356
318
329
337
348
364
383
391
381
345
317
315
316
320
336
339
330
333
334
334
284
504
378
331
339
344
357
376
396
401
389
353
329
321
323
326
342
342
334
339
337
340
308
477
369
335
342
349
364
380
391
394
385
354
329
325
326
331
346
333
326
334
333
326
379
428
349
333
334
341
360
374
386
389
372
342
316
317
317
323
337
329
328
330
328
301
499
419
330
325
333
342
363
373
385
387
372
334
319
316
326
334
345
329
334
336
338
263
570
399
329
333
349
364
373
389
396
388
361
332
331
329
327
343
329
330
330
339
306
499
401
336
332
341
347
362
390
397
391
376
340
322
331
322
345
346
327
327
333
329
285
479
366
331
335
341
352
373
395
402
388
356
330
329
334
342
353
347
340
340
346
295
568
428
329
343
347
357
372
387
397
393
376
331
323
324
331
348
346
340
336
341
336
380
443
350
331
343
351
358
372
391
387
374
335
318
316
316
326
331
322
323
326
330
270
494
373
320
330
337
348
365
384
386
383
350
322
317
318
326
337
323
331
322
335
263
543
395
326
335
346
357
371
384
391
389
354
325
318
321
330
333
329
329
332
333
264
565
406
323
333
341
353
367
381
385
390
354
319
321
321
329
338
336
331
334
333
311
497
418
345
340
341
349
368
388
397
395
364
336
318
334
346
356
359
350
353
363
361
299
531
394
346
348
353
364
373
386
393
385
348
316
317
320
318
332
323
320
324
327
299
452
415
326
330
328
330
351
361
377
378
366
325
298
307
305
312
324
314
315
319
316
252
551
391
307
316
323
331
352
373
384
380
354
323
314
312
317
340
331
322
328
331
326
336
436
354
330
340
347
361
380
398
398
385
350
330
328
327
334
352
343
343
357
360
349
485
448
364
364
366
373
389
409
417
415
394
356
338
337
343
339
351
347
340
342
345
292
560
424
333
337
341
354
368
382
392
392
369
334
318
320
320
327
334
327
324
327
328
268
565
412
320
329
335
351
364
378
386
387
364
329
314
317
321
324
337
326
325
328
336
266
561
401
320
334
337
346
363
382
390
389
363
333
314
317
324
334
339
326
328
328
328
265
530
379
322
326
338
348
367
388
389
386
352
315
314
306
313
317
322
309
309
313
315
265
488
359
317
320
327
346
369
373
389
381
343
324
318
320
326
344
347
337
336
342
342
315
473
372
335
342
352
360
382
393
402
389
359
337
329
332
332
347
347
337
335
338
324
386
418
341
331
332
344
356
374
393
397
374
343
314
315
320
334
344
332
327
328
337
276
571
405
322
329
336
349
359
384
396
386
368
348
334
338
348
361
365
357
348
354
353
297
561
398
339
351
355
370
388
396
408
391
359
332
327
332
334
344
343
338
337
343
333
373
436
354
333
341
344
359
379
391
394
379
340
317
316
320
324
344
337
335
334
335
300
489
419
326
326
326
340
351
374
383
383
363
333
310
313
315
327
327
320
321
326
329
262
553
399
325
336
350
360
382
400
407
394
362
335
322
323
328
344
338
329
329
336
333
323
459
362
331
338
346
358
379
397
392
384
348
321
318
323
330
342
335
330
326
333
317
423
412
335
324
333
338
358
372
389
394
377
341
320
316
324
331
338
334
327
334
331
290
533
413
329
331
338
348
360
388
395
394
375
341
322
326
323
338
339
331
329
329
335
278
566
410
327
325
336
348
365
386
391
400
372
336
322
321
331
344
342
334
333
333
334
261
573
402
327
334
342
347
369
387
395
393
364
333
320
323
329
341
346
335
335
341
340
268
576
400
332
338
342
355
370
386
398
392
359
326
317
319
323
336
341
331
332
334
336
268
568
398
333
336
343
352
369
382
392
392
356
327
317
318
324
334
332
323
321
328
323
294
447
357
322
324
334
347
364
382
391
378
347
321
311
319
324
342
330
328
331
334
322
415
415
342
334
338
350
364
383
394
395
383
347
326
325
326
334
346
337
335
334
337
336
307
466
367
332
339
347
357
377
391
399
385
352
329
321
322
323
344
337
333
334
336
339
273
519
390
328
335
340
353
371
386
403
393
361
326
323
327
329
335
345
327
329
331
332
285
534
405
323
326
336
346
356
376
390
389
369
333
312
312
319
325
342
337
323
330
325
329
282
493
373
328
336
342
355
374
390
395
390
360
330
322
323
330
338
352
342
336
339
345
318
451
421
341
337
339
351
360
382
396
394
382
345
323
319
328
333
338
340
336
333
336
339
284
553
421
328
334
339
348
364
378
395
393
376
343
320
319
322
325
338
331
328
329
329
328
315
444
359
325
330
338
345
367
389
389
384
348
320
321
313
321
334
337
324
325
327
330
271
581
409
330
335
343
354
370
391
396
394
372
338
325
328
331
335
351
342
340
336
344
337
311
475
365
335
339
345
359
374
391
396
389
357
326
324
320
326
336
341
330
329
332
337
274
582
421
330
338
341
354
369
382
390
388
366
334
326
323
322
335
338
326
327
332
329
279
566
409
325
325
335
346
362
380
385
379
360
322
312
303
310
324
323
313
316
319
324
260
571
397
318
333
339
352
366
385
388
386
367
333
324
326
339
340
351
337
334
337
340
273
580
418
326
338
337
352
367
385
389
393
372
332
326
324
327
338
337
339
328
348
332
253
587
415
328
329
336
345
355
377
386
385
357
325
313
315
322
334
329
324
321
322
326
257
544
379
319
325
338
349
362
379
384
384
348
318
315
318
325
337
326
326
331
332
330
381
441
347
331
338
352
365
382
392
395
384
346
325
325
330
341
351
337
336
335
341
284
562
424
327
329
344
350
366
379
388
389
362
333
324
322
326
339
340
332
332
338
339
268
584
414
326
335
340
353
370
386
395
397
377
337
331
326
328
343
335
327
331
329
331
280
470
369
326
328
339
352
375
386
389
382
352
318
319
321
329
344
330
330
333
326
296
534
412
329
337
335
344
365
378
386
392
367
333
323
324
328
343
342
331
338
336
339
272
561
393
332
339
345
359
376
396
396
390
365
329
328
331
330
347
342
333
333
341
330
355
441
349
333
337
348
358
375
388
395
387
346
322
322
328
334
343
331
329
330
338
281
556
422
325
332
336
351
361
379
391
385
369
332
320
314
317
334
333
321
327
327
333
272
492
370
321
326
336
352
371
379
391
377
349
316
310
317
320
336
332
324
327
330
317
450
413
345
338
347
354
366
389
396
400
383
341
329
327
332
338
350
336
330
339
343
280
573
419
331
333
344
348
366
390
391
391
365
331
321
319
326
336
345
333
335
336
341
277
511
382
324
330
341
352
369
383
388
387
350
323
315
319
325
337
328
316
330
328
281
538
407
323
328
338
346
362
383
388
388
366
336
321
317
320
337
340
332
333
332
330
300
475
367
335
341
345
357
377
392
391
385
352
329
321
322
329
343
340
328
336
340
310
491
418
335
330
339
343
359
375
387
396
370
334
320
325
328
335
343
335
331
341
336
269
575
412
331
330
341
348
369
386
390
387
363
327
317
319
323
338
337
329
331
327
334
297
469
370
330
332
343
352
373
394
395
381
349
321
321
324
332
346
333
331
334
336
294
530
415
328
333
339
348
361
384
394
394
369
334
319
315
327
338
341
335
332
338
341
265
576
396
327
338
344
356
375
390
396
391
364
331
318
322
324
345
336
331
334
339
331
355
445
349
329
336
339
350
367
385
385
377
339
316
314
319
322
331
318
317
320
326
260
569
399
323
329
330
344
366
388
387
381
356
326
312
315
320
338
330
323
326
334
330
363
424
350
335
336
351
361
375
392
391
381
349
323
322
332
332
347
339
335
338
342
287
555
417
334
340
336
355
369
384
397
399
378
339
327
322
329
342
342
326
331
336
333
269
516
385
321
339
340
354
368
391
394
386
354
329
319
324
333
341
338
330
332
333
298
520
409
332
332
335
344
366
385
395
387
367
335
327
325
329
343
340
334
329
338
334
269
562
392
325
332
345
351
369
388
387
386
355
330
321
321
329
339
339
327
330
335
339
304
480
367
338
336
346
358
376
389
393
388
347
317
318
313
325
337
335
325
331
335
293
524
411
327
330
341
345
365
384
394
392
367
334
317
320
324
340
337
330
328
332
331
276
513
380
328
338
347
356
378
398
399
389
352
326
325
327
330
350
341
334
340
335
323
424
432
340
331
345
355
365
385
397
400
386
350
326
323
324
338
340
334
331
330
332
269
577
407
324
328
333
336
359
381
388
386
357
322
309
316
314
331
327
320
325
320
324
335
433
343
318
329
340
352
377
388
390
379
343
327
322
324
330
347
336
332
333
334
299
511
419
333
335
342
351
368
386
394
394
384
344
321
320
328
335
340
333
330
333
335
265
579
417
326
332
335
350
365
383
390
386
363
328
315
312
314
329
329
319
325
334
330
262
517
372
320
326
335
346
366
383
392
378
348
318
314
317
325
329
330
322
330
327
314
409
415
332
328
334
343
357
381
392
398
381
346
327
321
329
336
349
334
336
342
340
291
569
425
334
335
345
355
373
392
398
400
374
338
325
322
325
334
343
332
328
338
337
259
559
395
329
332
341
356
369
388
389
391
359
326
320
323
325
337
325
324
328
325
319
362
421
338
328
329
338
353
371
383
384
374
336
315
310
311
326
330
328
323
328
330
256
582
391
321
332
332
351
371
384
392
386
357
331
320
320
327
345
339
329
339
337
317
445
420
339
334
344
349
366
384
395
394
378
337
325
320
328
336
337
329
335
333
341
266
547
397
335
355
355
361
370
393
398
387
355
321
312
319
327
336
319
319
323
330
271
566
409
319
328
331
341
361
376
392
384
362
329
318
321
327
337
328
328
325
333
312
437
408
333
326
339
343
363
384
398
394
386
340
325
325
332
347
336
334
334
338
340
291
499
371
332
334
341
364
376
387
401
385
348
328
318
329
336
344
331
334
337
336
268
591
410
329
343
342
355
374
384
393
390
359
330
327
325
329
348
330
339
343
344
298
532
423
339
342
340
350
362
379
389
389
361
329
310
321
321
337
327
321
319
328
319
365
407
335
329
322
340
350
364
384
387
370
331
303
305
303
329
318
311
317
317
322
254
552
378
318
325
343
348
369
381
396
382
354
323
317
326
331
346
335
327
331
339
296
538
412
328
330
341
348
365
382
391
397
369
334
321
323
328
343
340
334
334
343
342
271
559
396
331
338
346
360
377
395
401
394
363
328
325
326
326
342
339
328
332
332
319
435
416
333
329
336
346
354
377
386
386
368
336
324
311
322
335
338
325
327
328
329
258
583
394
322
329
338
349
364
388
393
392
357
328
317
323
325
347
339
333
335
337
340
278
522
381
329
340
345
357
377
392
397
390
355
325
318
323
321
339
339
332
335
347
338
273
555
396
324
336
347
355
359
388
395
387
361
326
318
322
327
341
336
329
332
331
327
325
428
352
329
331
338
355
367
384
382
377
341
313
314
320
320
344
339
331
331
340
336
313
470
369
329
341
345
364
381
395
398
386
352
327
322
325
332
344
345
338
346
347
353
281
567
395
331
337
340
345
361
376
387
376
351
318
313
312
318
337
328
326
325
326
321
310
452
356
326
330
342
352
376
385
389
377
337
317
311
317
320
339
331
329
336
333
314
466
421
336
332
336
345
366
382
398
397
377
341
323
326
331
339
350
347
339
342
342
287
577
429
339
342
353
366
376
394
399
403
379
336
324
325
324
339
339
325
333
334
330
260
538
384
318
326
333
345
362
380
392
374
352
317
309
313
320
332
334
319
323
322
320
383
417
340
326
351
354
360
378
388
391
378
350
322
323
325
338
342
331
335
334
333
284
550
413
327
332
342
348
362
379
390
389
370
332
318
318
320
336
338
325
334
342
337
268
580
408
329
335
344
355
363
380
395
390
362
324
316
320
321
340
335
330
328
332
335
284
491
372
323
335
342
351
375
384
392
374
345
319
317
318
324
342
338
333
335
335
320
454
416
343
335
345
350
365
383
392
395
378
343
324
327
330
333
348
335
330
332
343
297
533
423
336
337
342
353
363
384
393
399
373
339
321
324
330
339
346
339
336
338
344
285
579
427
338
343
344
358
370
388
394
399
367
333
319
320
323
339
337
328
330
331
333
264
538
391
325
330
341
354
366
384
390
385
349
323
312
323
323
335
329
324
327
330
329
305
463
356
328
329
343
356
375
387
391
379
346
320
321
324
326
340
330
332
327
322
317
425
420
333
335
336
343
359
375
391
390
372
336
316
316
321
331
340
327
329
332
336
280
562
423
331
334
341
351
370
385
395
403
378
339
331
331
330
343
331
331
335
333
337
309
442
366
329
334
341
355
368
393
388
379
348
323
317
318
330
341
330
326
333
328
275
554
404
324
330
335
343
363
377
385
389
359
328
319
322
321
340
336
329
330
330
330
294
470
370
326
336
340
360
371
389
392
381
350
328
325
328
337
349
339
334
340
346
286
555
424
331
339
350
357
372
388
396
393
372
334
326
326
332
347
339
336
336
341
327
370
420
354
335
341
342
347
359
362
387
370
337
324
320
320
338
341
328
334
334
333
273
483
377
329
339
342
355
370
385
385
378
350
325
324
323
336
346
338
333
336
334
270
552
407
337
342
351
358
377
386
391
391
362
333
326
325
347
352
340
339
339
334
277
552
414
323
330
340
346
365
377
391
390
364
331
321
323
332
339
330
327
330
333
270
556
413
329
337
344
351
362
377
389
386
357
329
319
321
332
335
324
327
326
334
259
545
393
335
339
343
354
364
378
382
379
343
318
308
317
330
320
316
320
323
310
420
388
332
326
329
340
356
375
381
382
348
324
312
310
319
332
324
319
322
320
255
555
392
324
329
340
354
375
388
399
391
355
333
323
323
345
338
330
331
340
338
353
436
358
334
344
344
365
376
390
393
376
341
324
324
328
345
334
332
334
336
277
562
414
329
334
338
353
365
370
377
378
356
324
313
318
334
330
321
326
326
323
310
444
359
329
346
348
359
376
392
399
386
347
319
322
327
339
336
327
329
330
275
548
412
316
325
331
343
358
376
390
381
353
322
314
313
332
333
325
323
329
324
273
468
366
319
327
336
347
368
384
380
372
333
322
316
326
341
338
330
336
335
323
419
418
339
330
335
349
365
384
394
393
377
339
326
330
329
343
339
336
339
341
315
484
416
338
341
345
355
368
383
398
397
375
335
324
326
331
347
338
338
341
342
294
527
417
330
335
344
351
364
378
391
386
366
338
321
326
325
341
336
328
329
332
282
533
409
322
328
335
343
363
380
391
383
360
333
320
314
327
342
335
328
323
331
299
484
397
329
330
338
344
360
382
395
389
370
336
322
319
315
328
326
311
309
319
311
309
431
340
319
319
331
345
361
378
379
366
334
314
307
317
325
335
329
318
328
331
262
564
408
321
330
337
349
359
384
392
383
363
331
326
325
327
343
344
333
338
344
317
456
424
340
340
344
350
367
382
393
392
368
340
318
319
323
330
340
329
331
329
334
268
512
377
323
324
333
352
371
380
390
378
349
325
317
323
328
350
342
338
343
343
307
497
419
336
337
344
350
369
385
394
395
370
342
324
323
329
324
348
340
331
338
342
287
555
416
334
339
342
355
366
385
396
395
370
332
320
326
324
339
350
337
338
343
343
270
576
404
333
339
345
353
368
380
390
385
350
325
313
322
317
328
333
321
327
330
331
292
459
359
325
329
341
349
366
377
377
376
340
315
310
317
319
333
337
329
332
335
328
369
429
346
333
334
343
359
375
387
390
377
343
320
321
318
323
341
339
326
334
339
334
325
445
356
332
336
346
359
371
388
392
379
342
320
322
319
322
337
341
331
333
333
336
267
555
403
332
338
342
352
370
383
388
390
359
331
321
326
330
328
350
338
329
341
334
321
435
410
339
336
345
353
366
382
389
391
377
340
318
320
320
324
333
339
328
325
329
331
282
487
373
322
329
338
348
367
380
389
374
340
321
315
314
321
333
343
328
332
334
334
263
574
402
330
331
336
352
365
388
386
387
355
323
318
313
324
327
340
335
330
331
334
284
545
416
327
332
343
354
363
382
395
396
373
333
322
324
326
324
343
338
332
333
340
327
409
417
347
332
340
348
366
374
394
394
383
344
326
321
325
325
346
338
336
338
335
336
322
450
364
334
346
346
358
378
392
393
380
346
328
319
321
321
344
345
330
332
337
337
270
557
396
334
340
345
356
378
389
398
389
355
327
324
324
333
342
350
338
336
338
338
272
580
415
336
339
344
355
367
383
392
386
359
330
320
322
327
335
345
341
334
340
343
276
578
419
329
337
337
351
364
383
396
389
366
331
324
320
327
334
343
332
331
333
330
270
571
409
321
334
342
346
367
381
393
387
357
329
316
322
322
333
341
333
330
338
340
289
546
410
330
327
342
345
370
384
390
392
369
339
324
322
329
330
348
340
336
341
346
335
376
441
353
334
343
349
362
382
393
394
383
347
327
322
326
329
346
344
333
333
340
339
275
528
390
335
338
344
358
369
387
392
391
362
329
328
322
330
335
343
328
327
343
339
283
541
414
325
330
334
339
356
380
386
385
360
332
315
313
314
323
335
324
320
315
331
297
486
401
320
327
327
340
365
372
389
387
360
331
319
315
324
323
345
335
329
336
340
321
453
416
335
333
333
348
361
378
394
392
381
344
318
322
328
331
346
339
334
337
342
325
399
425
346
336
343
351
367
376
396
396
385
344
321
324
335
326
350
340
335
342
344
334
338
434
366
336
337
344
358
374
396
386
378
344
322
317
318
322
340
336
324
331
330
329
305
467
363
330
337
348
356
367
384
391
371
342
317
320
323
330
344
336
327
335
335
337
340
443
354
329
335
347
354
375
389
393
377
341
320
314
320
322
340
335
331
333
339
334
329
444
357
329
338
338
360
381
385
390
381
348
325
317
324
332
348
338
341
336
337
324
422
418
348
336
345
352
365
380
389
397
377
339
322
321
325
334
342
327
331
332
332
265
585
403
322
329
338
350
368
389
391
382
361
331
322
321
326
341
340
331
338
339
342
272
547
386
339
338
343
354
371
390
390
384
352
323
320
323
324
340
339
330
337
335
340
281
508
380
336
339
348
359
372
396
396
386
359
333
322
329
329
346
338
330
331
335
327
372
418
342
333
335
343
361
374
393
395
377
345
323
320
318
334
341
330
325
333
336
273
569
408
321
328
340
346
367
379
388
386
364
332
321
316
328
337
339
330
328
333
336
266
584
400
328
335
342
351
369
384
394
389
360
332
323
322
334
336
346
335
331
340
342
270
588
424
334
342
354
355
365
388
395
393
369
330
323
320
325
336
339
333
327
333
331
265
571
408
322
331
340
349
363
381
384
384
356
324
311
311
317
331
334
323
327
324
329
259
570
393
325
331
341
349
373
388
390
390
359
330
321
319
331
337
342
329
335
336
338
271
583
417
333
340
349
353
370
385
399
397
370
339
326
330
330
344
340
329
332
332
332
274
561
400
326
329
339
336
367
381
391
387
355
321
318
308
317
337
331
329
326
331
335
276
514
375
329
331
340
351
375
391
397
383
358
327
322
332
331
348
339
336
336
340
346
325
462
362
335
338
350
361
380
397
396
383
349
327
320
326
327
346
340
331
334
331
337
292
479
372
326
334
343
356
377
385
398
385
353
326
318
318
321
330
332
327
329
326
330
264
512
377
321
327
334
346
369
378
386
380
347
318
313
308
317
333
333
324
325
328
335
270
509
377
326
332
341
353
367
390
392
374
354
325
316
324
328
345
336
334
337
342
343
270
567
403
336
342
352
366
382
401
403
398
363
332
322
325
333
332
345
339
334
344
338
273
580
418
327
335
343
354
363
383
394
396
370
336
326
323
329
333
327
336
310
319
326
270
552
411
307
323
330
343
358
375
385
384
358
323
307
307
309
323
333
320
320
327
329
263
567
410
321
331
338
348
366
380
396
389
362
337
321
321
327
336
350
336
337
338
344
295
544
426
340
344
349
358
370
392
400
400
381
339
335
326
335
349
349
340
337
339
348
321
465
415
342
332
343
351
360
377
394
395
379
341
328
323
323
333
341
345
336
341
342
313
463
416
338
329
337
350
355
375
390
390
369
342
318
316
319
327
338
324
324
327
329
288
528
420
324
329
333
346
363
378
393
385
373
329
314
317
319
325
337
324
327
325
332
281
542
414
325
332
341
348
362
384
392
394
372
333
317
320
327
329
344
340
329
331
346
295
510
413
331
333
336
345
361
378
393
396
376
339
322
318
326
335
350
340
339
341
344
320
446
422
335
330
330
346
359
378
391
397
379
340
320
317
325
329
340
330
329
329
330
302
505
403
328
325
333
344
352
376
390
389
367
329
314
316
316
328
341
333
327
334
329
323
445
408
334
327
335
353
360
393
381
402
391
341
325
323
324
337
344
342
331
337
343
341
303
488
365
336
345
349
359
376
400
399
396
356
329
324
328
321
336
342
332
332
338
339
266
564
402
331
341
341
350
371
383
396
390
358
337
319
315
322
330
342
334
325
328
331
287
538
415
328
327
336
350
363
381
389
393
367
337
317
322
325
325
340
341
330
337
337
331
383
437
350
334
343
345
360
382
395
400
387
348
328
319
324
331
340
342
338
337
341
340
265
560
404
336
345
343
351
368
389
396
389
358
328
313
312
321
331
338
325
324
331
333
276
560
406
320
326
331
346
362
382
391
385
359
330
315
316
324
331
344
331
322
325
333
293
525
404
329
330
337
349
365
381
387
387
371
331
319
316
323
326
340
335
327
329
339
318
437
420
341
334
337
345
356
380
394
396
380
343
322
321
325
327
342
339
330
335
334
330
350
434
354
336
338
347
357
380
391
392
382
348
321
318
322
324
340
335
328
333
331
323
363
421
350
331
340
344
355
373
389
395
385
350
323
322
324
326
345
332
328
332
334
312
471
405
336
329
338
351
354
381
389
391
373
340
321
311
322
332
339
328
326
330
330
268
572
403
321
326
333
344
364
386
394
387
367
327
320
320
327
344
342
336
336
339
339
280
522
386
337
340
347
363
378
395
400
389
360
327
327
331
331
345
341
333
338
337
319
451
420
344
336
342
351
365
381
399
396
382
345
324
325
329
339
346
333
335
337
337
277
565
414
325
333
335
349
360
381
391
387
365
325
320
317
318
337
329
320
325
325
328
285
475
371
324
327
340
348
375
387
390
378
342
316
313
318
324
336
326
324
331
337
309
465
427
333
327
336
339
357
381
390
390
374
336
324
316
325
334
342
334
333
334
343
277
564
422
331
337
345
351
369
386
398
408
368
335
321
326
319
332
343
336
329
338
333
278
507
379
327
335
335
353
369
381
394
384
359
320
318
320
339
341
332
322
327
329
275
554
404
324
323
336
347
360
382
386
388
362
323
305
316
316
332
336
322
326
333
328
322
455
355
327
336
343
356
372
396
389
386
348
323
321
331
330
346
336
334
333
337
275
584
417
323
337
341
356
373
392
398
397
367
336
323
327
335
347
334
332
336
341
316
460
420
342
337
347
351
366
384
390
397
377
341
321
321
323
336
336
328
334
335
328
315
439
357
330
336
352
358
371
384
396
388
350
324
316
319
331
330
325
322
325
327
270
491
377
323
331
341
353
371
386
391
382
351
323
324
322
331
343
330
332
331
337
270
578
404
332
336
343
348
370
388
397
393
355
327
317
322
326
340
323
325
329
329
260
562
394
318
326
336
347
364
386
391
374
352
320
313
316
330
341
325
326
324
331
264
580
409
323
328
340
346
367
387
390
393
361
326
320
320
326
339
335
333
332
340
295
534
423
333
337
341
352
365
385
396
398
374
339
329
328
334
342
337
333
333
336
304
485
413
333
329
332
346
361
380
391
390
374
331
319
312
321
336
329
324
327
330
322
352
420
343
331
328
343
352
374
386
390
375
338
317
314
329
338
348
332
332
336
341
263
556
400
334
339
346
359
371
391
394
385
352
323
317
322
323
338
332
329
331
336
309
474
421
332
335
336
348
364
378
394
396
377
337
320
323
330
333
341
333
334
333
337
260
567
411
333
335
341
353
370
387
389
388
351
318
309
317
322
337
333
324
323
332
328
283
466
367
320
332
341
351
366
390
388
377
344
316
312
314
322
342
332
327
330
332
312
473
415
338
338
338
349
368
387
398
399
376
341
328
321
330
337
350
341
335
341
342
281
587
414
335
335
346
354
369
389
399
392
367
330
320
322
327
336
342
337
333
333
338
269
549
389
330
336
344
354
370
391
397
390
352
321
313
318
323
337
335
328
329
331
320
395
420
338
329
333
342
358
377
391
391
374
342
321
316
322
326
335
323
320
325
329
267
554
404
318
323
328
340
357
378
388
387
358
325
310
315
318
337
331
325
325
327
319
376
411
340
328
332
342
363
383
394
399
380
348
324
325
329
332
351
336
334
335
341
271
593
413
327
336
342
354
368
387
397
393
365
328
323
322
326
340
338
323
330
327
313
434
423
333
327
336
343
357
374
388
388
371
335
319
319
321
335
336
328
325
331
329
325
454
355
326
334
345
355
377
389
394
379
345
325
320
323
338
337
327
331
338
340
279
503
382
336
342
345
359
372
386
390
379
348
323
320
322
333
338
328
332
335
339
272
518
389
330
329
343
348
370
389
397
384
350
321
317
321
332
339
329
330
335
333
268
531
393
327
336
342
351
371
384
392
383
350
321
318
318
326
337
333
329
331
336
277
561
423
326
334
348
353
364
383
393
397
375
336
321
323
330
340
333
325
331
332
285
547
423
326
333
336
346
364
378
396
390
360
328
315
319
328
340
325
322
325
331
270
559
400
316
326
332
343
362
378
388
384
356
330
317
320
334
347
334
330
330
335
276
573
413
328
328
338
348
366
384
396
386
357
327
320
326
328
345
337
332
339
336
263
597
410
324
333
343
352
370
384
394
389
356
326
319
320
330
339
330
331
332
334
269
524
383
331
339
347
358
374
389
393
385
350
324
322
322
329
331
324
329
332
329
352
445
353
331
343
348
360
380
392
398
384
345
324
334
329
341
334
328
333
332
294
524
415
327
332
335
343
364
385
388
394
362
336
317
322
325
341
326
323
325
329
267
558
405
325
327
335
343
365
379
385
383
355
326
314
319
325
344
334
328
335
337
274
579
417
331
332
342
351
370
389
397
392
366
328
322
324
326
343
339
332
332
339
319
445
425
345
331
336
342
357
385
397
400
380
343
323
326
327
333
344
328
328
329
335
269
524
386
329
336
344
352
376
392
404
394
358
326
319
327
320
337
334
323
329
330
306
464
398
328
326
335
342
354
378
386
389
368
332
312
315
319
324
341
328
323
320
326
264
555
389
320
329
335
347
367
380
389
379
347
323
316
314
325
340
347
334
334
338
338
319
470
368
331
343
346
362
381
394
400
386
350
327
320
323
332
342
343
334
334
339
331
372
433
351
332
340
345
361
379
395
399
383
346
329
324
322
327
341
336
331
334
334
322
454
415
334
333
339
346
364
375
391
390
374
339
316
318
319
322
338
328
319
321
326
266
564
403
320
325
335
339
359
387
381
384
353
328
313
308
314
327
330
317
320
321
325
260
551
379
325
328
336
350
373
388
397
385
354
323
317
320
327
340
342
331
334
337
339
286
488
368
324
334
343
356
375
394
401
384
354
328
330
326
333
339
341
332
338
336
332
401
422
350
340
344
354
366
387
397
403
379
341
329
326
328
329
348
338
331
336
338
288
546
415
328
334
332
347
359
380
386
391
359
326
308
308
314
326
334
324
319
324
328
261
549
384
323
332
340
348
370
393
391
388
354
319
316
314
329
342
339
338
341
340
343
335
452
360
334
343
350
363
382
397
402
390
348
325
319
328
329
345
343
336
339
343
321
454
417
342
336
347
349
364
379
394
394
372
337
316
322
329
329
346
338
339
333
335
276
575
424
331
338
345
347
362
383
395
391
363
327
317
311
316
325
332
322
323
328
330
266
498
375
325
325
336
349
365
386
395
376
346
317
306
314
321
339
333
325
333
334
331
312
458
365
331
337
347
360
381
399
398
387
353
323
320
322
326
341
342
333
334
335
336
309
467
362
331
338
345
360
378
396
399
387
361
328
324
325
332
344
346
337
332
338
340
279
504
381
331
337
339
357
369
394
397
386
348
318
314
316
320
334
340
322
327
329
330
260
566
397
322
326
328
342
365
378
382
378
347
314
308
310
322
325
341
333
320
320
328
283
536
414
332
333
338
348
367
384
396
394
373
331
320
318
328
327
339
342
335
338
339
344
315
459
370
332
342
347
360
378
391
408
396
355
328
329
324
334
338
350
327
331
331
331
271
572
405
324
329
328
339
365
389
399
401
374
340
333
331
336
338
352
343
339
342
344
328
410
420
339
330
333
342
356
378
390
394
375
337
318
313
315
318
331
338
324
325
330
333
293
465
361
325
326
336
347
369
379
385
377
349
318
319
320
325
336
347
335
334
336
338
266
579
403
334
334
345
353
376
392
409
394
367
332
328
323
333
339
351
343
340
346
344
299
555
426
341
342
343
358
370
387
400
398
370
340
317
322
325
326
343
327
328
326
327
310
447
400
327
320
323
339
356
373
384
386
366
331
305
304
311
313
332
323
320
323
324
305
439
401
333
325
336
345
368
381
390
397
375
341
323
317
328
332
346
337
336
336
342
329
392
431
353
331
341
347
363
378
392
396
386
340
326
315
328
334
343
348
339
339
339
338
320
449
366
336
340
338
362
372
388
396
378
340
315
313
314
318
333
332
318
327
326
327
316
440
361
331
336
344
354
375
387
391
378
342
321
315
317
323
340
341
333
331
338
340
317
465
369
334
344
354
366
379
400
407
391
354
330
323
327
336
349
346
339
342
346
347
276
549
390
334
335
348
357
375
393
399
393
357
329
319
325
334
341
351
340
334
338
336
274
571
411
335
332
342
352
365
384
395
391
370
329
321
317
323
334
342
324
330
328
328
290
536
404
328
331
333
347
361
382
398
391
369
334
320
319
326
335
346
340
333
332
341
323
431
416
343
333
345
354
366
386
396
401
388
343
324
325
327
327
345
344
342
333
344
340
271
556
401
336
343
347
354
374
390
398
388
357
332
318
322
324
333
342
329
328
329
332
274
562
406
322
331
339
351
367
380
395
387
361
328
319
314
319
325
343
332
327
330
339
303
495
413
335
338
347
354
367
388
400
404
377
340
323
323
332
334
350
345
334
340
346
340
324
460
366
336
339
350
367
384
399
402
391
356
329
327
327
335
346
348
340
337
343
344
281
565
408
335
343
345
350
361
379
384
377
355
322
317
319
325
334
337
328
328
331
335
294
524
408
330
326
341
351
363
383
396
395
367
339
317
321
328
340
343
333
334
331
338
323
429
420
344
340
339
349
363
383
394
395
384
344
323
329
326
334
350
336
335
335
337
336
308
466
371
331
339
343
355
371
390
393
380
351
323
317
323
330
339
339
325
330
334
330
264
552
391
323
330
333
347
368
382
389
384
354
323
319
316
322
337
340
322
327
329
337
259
576
394
329
335
340
348
370
387
394
390
359
326
318
322
327
338
343
333
332
334
340
266
583
397
333
337
347
353
368
391
397
392
366
330
325
322
334
342
344
334
339
339
345
269
575
405
330
339
341
358
366
388
395
397
362
333
322
328
331
344
342
334
338
335
334
274
514
382
325
335
343
352
371
385
391
389
353
323
316
315
326
338
329
327
324
329
309
434
397
335
328
337
346
357
377
394
397
373
343
329
327
330
341
348
335
337
341
346
289
584
421
338
342
353
361
376
388
400
399
373
338
325
327
330
346
345
339
335
339
344
276
542
394
333
341
346
357
378
394
401
390
359
333
327
331
333
350
344
338
339
344
325
431
420
351
337
343
353
366
383
398
402
389
351
332
328
337
344
352
335
337
335
345
269
568
406
330
331
340
353
375
387
394
389
354
329
319
323
329
344
335
335
329
333
315
440
407
333
328
336
342
358
371
392
388
375
334
319
316
318
336
338
329
331
333
335
266
562
391
327
337
341
357
373
391
398
389
354
329
320
326
334
343
340
328
332
338
318
439
421
337
332
338
348
361
385
390
393
373
337
320
311
320
332
337
326
332
332
337
267
586
413
331
337
339
349
364
381
396
385
355
325
310
319
318
340
329
320
320
327
321
342
417
343
322
329
332
354
371
385
385
372
333
318
311
318
331
336
321
317
322
332
265
576
405
322
335
343
351
375
396
405
400
371
336
328
330
339
351
356
348
341
353
349
282
553
397
343
351
354
370
388
401
413
402
365
337
327
331
335
348
346
339
343
347
341
303
472
374
333
339
345
359
385
388
401
385
350
325
323
319
323
342
337
328
330
334
341
306
468
374
332
343
349
358
377
397
402
390
347
331
322
329
331
351
352
342
339
345
344
281
538
394
339
344
351
367
384
401
407
401
358
334
323
327
328
341
345
331
335
338
339
275
565
406
329
335
343
355
369
389
399
392
363
335
325
317
326
336
350
329
328
336
335
267
566
405
325
327
339
346
364
384
395
392
360
326
312
313
317
333
329
321
325
331
333
264
520
377
324
332
340
351
366
394
396
385
348
318
315
315
318
339
336
330
332
339
334
298
476
370
332
337
345
358
380
394
400
388
355
324
323
328
323
344
343
330
338
339
344
303
478
374
335
342
347
361
380
395
404
389
351
326
317
321
327
334
340
326
329
333
334
273
516
383
328
337
345
352
372
386
394
389
356
318
311
318
318
334
332
330
327
333
325
278
485
372
325
328
337
352
372
386
393
388
348
321
311
313
324
335
336
325
329
332
335
315
459
363
332
338
348
359
380
396
404
390
350
327
319
326
330
341
344
335
338
341
342
298
495
379
331
343
351
362
382
398
401
394
355
327
321
323
334
337
345
336
333
340
344
272
576
413
331
346
348
360
371
394
399
404
374
337
320
328
331
339
348
338
335
337
340
283
580
418
334
336
345
356
369
394
397
397
371
337
319
320
325
335
348
335
334
334
334
284
562
410
334
336
344
354
368
385
400
404
375
343
326
321
330
336
350
341
335
341
345
341
350
456
369
345
347
358
365
386
400
403
387
350
320
315
316
320
328
338
326
335
330
334
284
540
423
320
327
330
335
358
369
388
381
361
328
307
305
310
312
325
322
313
320
315
319
273
468
364
310
324
333
338
365
378
387
374
343
311
312
311
317
327
340
327
326
331
331
294
532
409
330
331
339
346
367
387
397
400
375
343
327
322
327
334
349
349
336
343
345
342
274
570
402
339
345
350
365
384
401
415
406
378
338
338
338
348
337
355
349
350
348
345
339
392
436
355
344
346
356
374
393
403
408
394
359
332
322
330
329
342
340
332
336
332
335
270
572
401
327
332
338
346
366
383
392
391
366
330
320
315
319
328
341
338
325
336
334
334
295
487
374
330
339
346
362
378
396
400
392
362
330
320
329
330
337
346
334
336
341
341
321
475
417
345
337
348
350
372
381
399
402
389
342
328
322
323
326
337
341
328
330
333
328
268
554
394
318
330
337
348
365
380
387
387
355
315
311
308
312
322
333
322
327
317
332
293
503
407
325
328
338
335
353
376
390
393
366
329
315
320
323
329
345
341
332
338
338
339
268
613
377
328
339
345
356
372
392
401
395
369
339
332
330
336
343
353
340
342
350
355
275
624
421
333
344
351
365
379
397
406
399
384
346
334
335
336
345
358
342
339
344
346
300
547
423
336
332
344
349
360
377
383
387
368
332
312
311
317
316
331
318
314
316
317
311
349
423
332
318
318
328
336
357
369
372
366
331
310
300
304
311
323
319
312
318
327
323
260
521
371
321
331
338
345
364
376
384
372
350
325
308
314
318
334
331
328
307
327
314
260
489
371
322
324
328
343
368
382
384
378
348
317
311
319
322
335
338
330
325
330
333
258
532
384
322
330
337
352
370
387
398
388
362
328
323
324
330
348
338
341
338
345
347
270
566
403
336
343
352
361
376
395
396
397
363
338
317
325
333
345
341
329
334
339
336
285
486
373
333
328
336
353
369
379
386
377
343
320
308
311
321
328
322
320
323
330
288
504
414
330
322
336
343
355
380
390
389
367
325
308
309
316
332
324
319
322
323
320
288
458
363
321
330
341
352
374
395
393
384
351
325
314
322
341
346
329
335
345
340
278
576
416
337
346
346
362
384
403
407
419
373
343
334
333
334
349
341
334
337
332
323
361
423
338
322
325
332
342
365
380
383
371
329
309
302
306
322
325
315
317
319
325
255
565
398
317
330
338
346
367
387
397
398
362
327
319
319
328
341
330
323
331
333
321
414
406
341
331
340
342
368
375
388
398
376
339
318
313
321
335
334
323
327
330
336
273
571
399
336
353
363
377
401
428
429
425
389
366
354
371
401
414
401
384
387
380
368
426
462
377
353
360
365
380
390
409
407
389
352
324
318
328
328
340
330
327
324
326
295
499
397
319
316
325
333
347
374
386
386
363
330
305
309
317
325
330
319
317
323
322
272
551
401
318
323
326
342
355
380
386
387
363
327
310
305
305
328
322
312
313
309
316
250
543
381
308
314
321
337
348
370
373
372
343
314
297
303
309
314
317
301
303
307
310
236
579
398
302
309
312
313
331
353
370
377
352
311
302
302
305
313
322
308
305
301
303
230
566
374
304
311
319
336
359
404
459
491
481
434
417
408
399
410
407
393
386
396
381
307
591
444
348
349
365
357
371
375
410
383
378
353
331
317
316
322
312
307
309
313
319
274
427
337
303
308
317
328
333
349
347
339
306
288
282
295
290
305
307
297
313
312
276
485
391
308
308
311
320
336
361
375
374
360
318
301
297
305
316
334
324
324
335
338
278
600
425
339
354
363
373
389
407
417
416
401
360
351
355
361
377
374
367
366
369
369
292
587
423
359
365
372
385
398
416
413
412
385
355
349
355
360
378
377
375
377
385
408
444
516
432
409
399
405
400
418
425
427
404
365
340
330
337
333
341
321
313
323
318
260
515
389
291
302
290
312
323
343
346
347
324
286
270
270
274
298
289
287
289
296
300
234
472
345
294
299
312
324
348
366
379
370
331
317
308
308
320
328
327
326
323
322
309
368
380
304
284
294
306
324
350
373
385
377
346
336
325
335
349
357
344
355
354
362
312
564
431
336
346
339
344
356
371
376
368
347
305
284
281
273
287
285
282
275
275
271
207
474
311
228
228
225
235
249
253
255
250
214
175
165
162
160
172
153
149
147
152
140
253
229
151
152
165
175
189
206
221
221
206
195
180
270
286
300
294
268
278
286
301
230
544
385
312
328
338
356
379
406
423
436
417
402
382
395
403
416
416
408
417
418
412
423
513
428
397
401
403
416
428
444
432
423
391
364
353
344
343
347
339
336
338
349
293
601
443
359
370
381
392
407
428
438
441
419
385
371
371
372
390
384
377
379
382
366
448
470
376
363
367
375
388
402
412
413
402
370
345
346
345
356
352
350
351
349
347
360
457
364
342
346
355
367
383
401
398
390
369
320
332
314
343
339
340
332
334
311
392
404
349
339
332
350
360
379
394
391
374
344
326
313
320
363
377
373
379
373
372
383
454
381
356
360
365
380
392
398
399
387
346
325
318
319
330
329
321
312
323
335
273
530
390
328
328
332
337
349
356
352
349
312
281
277
282
310
326
322
334
336
340
271
576
403
335
335
345
346
366
384
386
379
347
319
302
316
326
322
318
324
337
374
330
634
470
404
414
419
419
415
429
423
403
365
324
299
290
283
279
272
264
262
259
227
422
333
257
263
279
296
349
421
418
407
378
324
306
290
280
279
266
256
258
253
243
326
334
270
258
262
279
294
320
371
387
364
329
311
303
308
329
316
313
318
321
310
306
438
356
322
327
334
349
368
373
383
371
343
323
313
322
331
336
327
322
330
333
263
581
397
327
336
343
354
364
381
394
391
358
332
330
331
336
367
339
331
338
339
307
477
395
316
309
309
299
293
294
295
292
265
222
174
149
138
162
164
164
168
165
134
201
180
140
136
158
171
197
215
215
205
183
143
124
120
127
137
133
144
172
218
281
278
622
521
525
561
594
625
637
655
654
638
596
550
524
518
512
514
508
490
472
460
399
621
477
391
391
393
395
411
423
426
413
394
357
341
341
347
366
364
345
346
341
336
271
563
399
332
340
344
350
369
383
394
389
365
338
332
328
340
359
353
343
352
351
354
427
438
379
377
378
387
404
419
426
434
415
385
355
360
363
361
378
362
343
327
315
247
532
365
287
283
294
304
311
337
339
331
296
255
237
241
254
271
283
285
286
293
304
248
504
369
318
321
329
347
371
388
402
393
367
336
335
340
350
366
364
353
365
368
353
499
429
380
372
387
393
407
428
437
434
420
385
368
354
366
370
377
372
366
380
385
338
653
463
401
412
415
423
429
435
433
420
380
321
280
249
235
220
213
190
197
213
213
173
429
319
272
262
244
232
252
280
286
283
255
237
233
243
245
272
270
271
279
284
276
396
369
313
305
313
330
344
367
393
391
382
348
322
322
320
329
333
319
316
326
305
246
551
349
249
214
196
193
199
200
207
217
209
204
225
256
283
322
342
345
358
368
373
358
516
404
366
377
385
397
425
440
451
447
419
399
405
412
418
435
427
440
444
458
409
660
553
484
479
476
473
472
480
475
471
449
404
390
390
391
399
397
382
391
386
377
349
498
405
363
367
359
374
386
401
400
388
352
322
314
308
319
319
310
302
301
304
242
511
354
279
288
295
297
319
336
348
345
324
292
280
279
286
310
300
294
292
294
290
302
390
322
328
343
347
363
378
393
399
380
346
332
327
331
343
356
339
337
338
344
289
561
401
338
343
345
355
372
386
398
396
379
335
330
328
329
347
350
338
337
344
341
279
555
396
334
338
347
350
379
393
392
386
354
328
311
319
317
331
329
314
315
317
308
319
396
321
297
293
296
295
306
310
297
275
240
216
201
214
214
227
216
206
208
222
169
467
293
230
243
248
259
286
313
331
338
324
299
296
322
340
358
368
344
324
296
287
246
501
372
336
354
388
417
450
482
509
506
473
442
430
424
420
417
394
382
373
368
341
449
417
340
321
317
309
318
332
335
324
306
274
257
263
266
284
291
282
270
256
252
197
495
339
279
300
323
338
372
405
420
421
400
373
365
372
383
404
400
396
400
409
398
452
486
421
399
393
389
397
414
423
427
401
376
347
350
341
348
349
338
324
329
331
272
563
399
328
335
340
351
369
386
390
382
350
315
296
288
284
278
277
258
253
264
271
220
498
351
298
316
322
339
361
382
390
388
359
333
327
333
339
361
354
358
363
364
355
419
454
380
373
375
388
390
413
430
431
419
384
362
365
360
371
380
367
370
368
365
305
603
431
350
350
351
358
367
385
386
374
352
318
301
296
295
302
286
270
267
263
268
239
392
294
264
271
287
298
327
337
351
335
301
280
285
305
305
334
331
336
347
356
346
516
454
379
377
379
385
398
430
444
428
402
359
346
334
344
346
354
343
337
334
342
271
579
414
330
336
346
352
369
386
396
390
367
334
327
325
323
344
340
332
333
343
333
312
456
370
334
342
353
370
391
408
416
415
375
359
357
365
367
386
370
365
374
371
337
547
443
368
366
367
379
390
405
417
411
394
342
334
334
333
343
352
345
335
336
342
293
540
411
332
332
337
347
361
378
387
381
360
326
309
305
312
314
330
325
312
320
316
274
522
406
308
320
328
343
342
366
381
378
363
325
309
309
317
325
334
332
332
335
334
263
581
409
329
336
341
347
366
379
385
376
351
320
313
307
313
331
324
318
319
325
316
296
422
343
310
306
318
329
348
356
361
342
304
285
267
268
276
283
266
275
274
266
209
488
335
250
251
246
283
306
327
335
327
301
281
269
283
296
313
315
302
306
314
313
300
458
392
359
375
385
394
418
429
420
411
372
349
330
336
327
333
322
314
329
352
315
560
439
361
363
359
363
402
453
456
445
419
382
373
366
355
337
313
282
291
292
288
218
414
304
260
272
285
298
321
348
356
350
329
310
284
296
299
325
324
324
325
331
320
431
425
345
342
357
378
393
415
411
398
375
337
325
324
332
344
350
343
346
351
355
289
574
424
343
347
351
361
378
398
411
404
382
344
335
337
346
359
353
348
348
357
355
301
504
397
347
351
358
375
393
416
413
407
374
342
340
346
342
364
349
350
349
352
336
424
430
360
348
357
362
375
390
402
405
395
366
341
341
337
357
354
356
350
367
380
331
604
457
379
378
391
403
414
434
436
450
400
385
368
369
360
380
371
357
363
353
354
329
450
372
328
345
341
356
373
387
381
362
322
287
271
278
283
288
282
276
275
277
233
462
360
268
274
272
281
297
316
327
325
303
263
246
246
243
266
265
289
319
339
348
285
545
404
340
339
341
348
367
379
386
383
358
348
352
362
385
390
395
381
388
384
360
513
458
389
381
381
381
393
406
414
413
391
353
322
320
338
325
323
325
314
324
303
230
494
344
292
288
314
321
339
359
361
356
337
305
299
305
310
331
326
326
326
330
307
470
412
337
333
333
346
357
375
393
399
371
347
312
320
319
332
337
330
333
335
340
262
565
409
333
335
347
359
383
396
404
396
363
343
329
335
333
349
337
333
337
332
308
431
414
329
331
324
335
343
363
369
370
352
316
297
291
301
314
309
304
312
319
316
255
526
382
331
336
349
367
393
420
432
430
398
374
366
373
370
379
368
365
369
367
334
511
449
364
356
365
371
385
398
409
407
386
354
335
330
337
343
344
330
331
333
336
261
567
406
324
336
346
381
411
416
415
399
368
328
314
311
305
324
312
302
304
300
286
316
385
306
283
285
295
312
318
336
337
328
296
277
280
287
287
308
314
309
339
347
296
518
421
322
327
330
337
353
369
383
378
362
323
306
307
300
314
318
306
302
302
294
218
518
362
284
290
300
313
335
354
366
366
345
315
313
316
322
337
346
338
344
347
346
318
463
392
346
354
361
379
391
405
417
406
374
352
343
355
362
386
381
383
386
391
371
494
463
398
393
400
410
414
431
444
445
407
352
340
334
337
336
353
342
334
327
331
322
390
415
338
326
333
336
353
369
382
388
374
333
313
311
309
327
313
320
319
324
322
310
379
417
339
323
327
341
356
370
381
388
370
342
320
315
317
327
341
330
324
323
329
298
490
404
332
333
336
344
365
374
387
389
369
335
316
314
316
328
336
325
329
327
328
271
561
403
320
326
332
343
364
380
387
376
361
320
310
314
320
335
341
329
331
329
334
266
573
403
326
331
344
350
368
390
393
387
357
330
320
323
322
337
340
337
340
332
342
274
549
405
336
347
355
364
384
403
410
402
371
339
328
329
333
353
344
334
342
341
337
323
462
369
336
341
355
364
387
399
404
396
361
332
322
330
334
350
338
339
335
336
325
429
420
337
331
337
344
360
377
386
386
363
332
308
312
313
320
331
321
318
322
319
289
469
397
317
312
314
323
336
355
364
367
346
310
295
296
306
307
322
312
309
321
322
278
497
409
310
315
324
334
351
373
380
389
372
329
317
318
325
338
338
330
329
335
336
266
564
419
342
351
355
373
386
397
410
405
377
346
339
338
340
365
350
344
348
355
345
327
459
374
343
344
355
365
385
395
399
385
353
327
322
321
333
339
326
324
327
327
304
445
407
320
318
322
328
345
363
373
371
355
311
290
297
294
306
312
301
304
304
309
251
523
390
297
306
313
325
347
374
404
416
392
349
337
328
333
340
338
326
327
327
330
260
497
373
317
314
326
334
351
368
370
367
329
304
296
298
302
315
306
302
307
313
291
450
385
324
315
324
344
363
382
397
395
380
342
327
324
326
340
340
333
329
330
332
269
555
402
316
318
330
333
353
374
381
380
353
314
306
308
311
326
326
325
329
338
339
265
555
395
336
340
348
361
380
399
409
403
372
338
333
340
346
352
352
346
352
351
337
458
427
355
351
360
364
378
400
417
415
392
362
337
335
340
352
355
346
337
345
343
283
577
411
337
339
341
354
369
384
393
391
359
329
314
311
316
326
325
318
316
324
326
255
576
394
322
332
337
346
367
380
392
389
361
327
316
318
323
335
332
326
330
332
334
290
501
371
328
