339
326
327
328
333
335
342
354
343
346
348
350
352
262
638
456
351
355
358
367
377
395
418
436
450
431
369
336
326
328
329
335
344
351
339
336
341
341
344
265
612
442
339
342
349
353
367
383
405
424
432
414
354
319
310
311
318
324
331
344
330
328
333
336
339
258
618
454
337
339
346
355
366
383
406
427
436
425
362
326
317
317
320
324
326
344
341
335
338
342
344
339
325
518
376
340
344
351
360
373
392
415
430
436
399
344
324
322
324
326
332
333
347
352
346
349
348
353
353
306
529
400
353
355
359
368
381
403
424
438
447
412
355
327
323
318
323
327
331
345
331
329
332
334
333
260
603
446
334
336
341
349
361
378
402
420
432
419
360
322
313
314
320
323
327
342
330
325
327
333
333
253
613
449
331
335
339
345
356
373
396
417
429
413
355
317
311
312
316
320
319
334
336
330
332
337
338
288
544
472
340
337
343
352
364
380
401
424
439
436
381
337
327
327
328
334
344
347
339
343
346
352
332
443
491
365
354
358
363
375
389
410
433
446
445
396
350
336
336
338
343
352
358
349
350
346
351
353
301
514
404
349
355
360
372
384
402
427
441
445
407
353
333
324
330
334
339
347
332
330
335
336
335
262
537
407
334
336
344
353
362
384
407
422
428
395
337
313
310
314
319
324
341
329
327
330
330
333
249
621
443
333
336
343
349
361
379
405
423
434
415
358
324
320
320
323
324
334
343
335
335
339
341
342
274
549
398
342
342
345
353
367
385
410
425
433
402
347
325
320
320
326
324
344
338
331
335
338
335
295
517
449
340
335
339
347
355
372
396
415
427
423
371
328
314
314
316
319
337
338
325
325
328
331
331
280
492
390
333
334
341
351
365
385
408
420
426
392
339
320
317
320
329
333
347
340
334
337
339
343
276
603
473
342
344
350
356
370
388
411
430
441
431
373
335
328
329
333
336
336
352
351
346
346
348
351
316
511
488
356
349
353
361
371
385
406
427
440
437
390
342
331
331
334
336
339
352
355
348
350
352
356
353
343
493
390
350
356
361
368
386
402
428
441
445
403
352
323
322
322
325
329
342
345
329
328
334
333
320
413
443
351
328
331
338
348
363
382
405
418
413
368
315
302
300
302
310
312
324
322
314
316
321
324
256
587
447
322
322
326
334
345
363
386
404
415
404
347
304
298
295
299
302
304
312
321
311
313
316
318
317
266
518
361
314
318
322
332
344
364
387
403
409
373
314
293
291
291
297
300
297
312
317
309
310
313
316
301
391
458
337
318
320
327
335
351
373
397
412
414
366
314
299
299
298
304
308
308
331
321
320
320
325
333
245
619
433
331
335
341
355
366
387
411
429
440
423
360
329
321
325
328
336
338
352
350
345
347
352
354
266
651
465
351
354
359
367
379
396
421
439
449
430
369
334
328
329
331
336
339
349
352
345
349
351
356
305
548
490
352
352
354
363
372
388
412
433
447
442
390
343
335
337
336
340
344
343
360
349
353
354
353
353
268
631
462
344
349
354
361
370
387
411
434
442
426
368
329
317
320
320
322
326
342
339
330
332
335
335
290
550
451
342
338
343
352
366
383
405
425
437
434
380
335
325
324
329
333
337
348
348
342
347
349
352
311
530
487
354
348
352
358
366
382
403
425
437
431
378
331
321
321
323
326
328
336
343
336
338
340
342
340
294
534
387
340
343
351
359
372
389
413
429
434
398
342
323
320
325
326
331
338
353
337
338
341
343
345
255
605
434
340
342
349
356
372
391
416
431
438
416
354
326
322
322
326
334
336
359
347
344
347
350
352
263
637
456
351
354
359
370
382
401
427
443
454
432
370
337
328
330
337
345
347
364
358
352
352
354
354
301
558
482
346
345
347
351
358
370
390
412
424
417
361
312
301
300
304
305
307
310
327
315
317
318
321
324
238
605
437
321
324
330
339
350
367
390
411
425
407
349
314
309
310
315
315
321
324
343
332
332
334
336
340
249
599
430
334
334
342
349
365
387
409
429
438
411
355
319
311
310
317
324
323
347
339
333
339
343
346
306
539
452
356
350
359
367
377
397
419
441
453
450
392
347
332
329
335
340
348
357
357
351
351
355
358
332
484
485
371
360
364
371
379
395
414
438
452
447
391
342
332
331
333
337
342
340
354
357
351
354
358
361
302
585
493
356
356
359
368
377
392
413
435
445
439
384
339
329
328
325
327
331
329
350
339
334
338
340
341
267
607
458
336
338
339
351
359
378
401
424
432
422
363
316
307
305
312
313
317
319
336
317
319
320
325
324
241
612
426
326
331
338
349
365
385
410
429
438
420
361
323
315
319
326
326
331
335
340
353
340
344
346
346
351
262
616
428
345
345
354
361
371
391
417
433
442
420
361
330
325
326
328
332
334
336
337
356
346
345
347
349
351
259
625
433
348
348
356
359
368
386
411
430
440
416
357
324
318
317
318
322
326
326
344
338
334
336
340
342
263
619
454
337
340
346
354
366
388
409
432
442
430
369
325
315
315
315
317
317
321
333
321
318
314
317
316
224
564
390
299
301
304
309
319
337
359
376
382
352
287
253
248
244
249
252
257
263
267
259
263
267
269
225
469
407
276
273
278
288
299
318
342
368
381
381
329
283
273
277
284
288
298
301
307
321
315
319
328
332
307
449
465
349
342
344
354
365
381
405
428
443
442
395
345
328
327
330
332
336
338
356
351
349
350
354
357
296
606
462
352
353
362
369
380
398
420
441
451
448
394
348
337
337
343
346
352
354
368
357
359
362
363
362
275
625
441
360
362
367
376
388
408
433
451
461
432
370
342
335
337
341
345
347
346
365
360
357
359
362
363
272
646
458
359
360
365
375
385
403
424
446
457
435
373
341
334
336
336
338
344
344
361
349
349
350
349
354
270
590
430
348
349
356
367
380
399
421
441
448
423
361
329
321
325
328
332
333
340
351
337
336
340
342
339
287
516
397
340
342
349
361
373
392
417
432
440
405
343
317
314
319
320
327
329
334
349
336
335
340
343
345
262
590
415
343
345
350
360
372
392
415
434
444
416
355
324
322
323
325
327
332
332
351
346
343
345
347
348
268
614
463
341
343
346
354
365
380
406
427
433
426
366
330
316
319
323
326
329
331
336
351
340
338
342
346
348
325
500
402
353
353
360
369
386
404
430
442
449
415
355
329
321
328
328
332
335
345
350
337
337
339
339
298
536
445
344
336
339
347
357
372
395
417
431
428
370
321
309
307
313
316
317
324
335
328
325
327
328
333
237
642
436
331
332
339
347
360
380
405
426
437
417
354
322
319
319
320
323
329
332
335
354
344
345
350
350
353
273
598
417
351
353
359
366
379
399
425
445
454
428
367
337
336
335
337
340
343
342
355
362
350
354
356
357
339
427
500
368
351
352
358
366
379
397
420
432
434
390
333
311
306
306
306
307
310
309
315
325
309
311
309
311
301
304
441
341
303
305
312
320
333
356
375
390
396
361
301
273
270
271
278
283
288
287
302
296
294
296
301
305
217
586
409
309
313
321
333
345
366
390
412
426
412
350
318
312
316
321
325
329
334
344
351
346
351
357
359
304
592
495
363
362
367
373
384
399
421
445
459
455
401
353
343
345
347
350
354
358
361
376
371
369
373
375
376
286
629
447
368
368
372
379
387
404
431
446
456
435
371
335
330
328
328
330
331
332
331
350
341
338
342
339
341
273
527
402
331
334
340
346
358
375
397
415
419
395
330
297
288
289
291
293
296
302
312
300
302
305
310
291
407
434
330
311
311
322
333
350
375
400
415
419
377
322
307
307
306
309
312
315
317
334
318
320
322
325
319
337
488
355
322
321
327
337
352
370
396
411
417
378
317
295
293
293
298
300
306
313
316
309
311
310
315
287
441
450
328
315
321
328
341
358
380
405
419
419
376
320
305
306
308
312
315
318
335
329
327
329
335
336
248
606
435
335
336
347
357
371
390
417
436
448
430
369
334
327
334
337
339
342
358
358
350
357
359
365
332
512
499
374
366
369
380
390
405
425
447
461
464
414
363
346
346
346
350
354
359
374
362
362
363
368
366
276
645
460
356
360
359
371
381
400
422
443
452
433
371
336
326
327
329
335
331
353
338
335
339
339
344
271
618
452
337
338
343
349
364
382
406
426
436
427
369
325
316
315
319
321
323
334
342
328
330
336
339
336
302
524
385
340
344
351
360
376
396
419
438
445
413
350
327
325
328
330
334
333
354
347
345
345
348
351
290
585
479
350
353
355
364
374
388
411
433
446
441
386
339
331
329
331
334
336
335
357
351
346
346
347
348
300
557
463
349
347
354
355
368
386
412
432
440
444
390
339
323
321
322
324
328
327
350
340
335
335
337
337
286
567
446
340
338
340
348
360
375
399
421
432
430
377
326
311
311
313
320
323
326
328
348
336
337
337
339
342
249
630
436
338
341
346
355
366
384
410
432
442
427
365
330
321
320
324
326
332
332
341
353
343
345
348
351
348
314
533
393
350
352
357
367
380
400
422
441
446
418
356
329
326
328
330
331
336
333
347
354
344
344
346
349
327
467
462
358
344
351
355
367
384
405
428
438
441
396
338
322
318
315
319
326
327
342
341
331
328
331
334
293
529
441
337
330
335
339
349
364
387
407
415
415
367
313
298
295
296
298
300
306
317
310
306
307
310
313
222
607
424
312
314
318
328
339
359
384
405
414
397
337
298
292
291
294
296
298
304
319
309
308
311
316
319
228
596
413
320
322
327
337
348
367
393
412
421
405
341
307
302
299
305
308
311
316
328
318
317
320
321
327
242
550
393
319
323
328
335
348
364
393
416
423
395
334
305
297
298
303
304
307
320
328
318
319
326
326
324
278
488
385
337
345
352
363
381
403
426
449
454
423
363
338
335
339
342
350
355
372
358
353
358
364
368
286
638
446
363
368
375
385
395
418
441
462
471
448
384
350
343
347
348
353
360
372
355
354
355
357
360
271
644
442
352
353
357
364
377
396
420
440
450
425
364
330
324
327
328
328
334
340
349
340
341
344
346
347
254
637
435
343
344
349
357
367
385
410
431
443
426
366
327
321
323
324
325
332
331
345
350
341
344
346
350
343
347
497
382
349
351
358
368
382
402
428
443
447
415
353
327
321
322
325
328
332
332
352
339
342
342
345
347
277
608
467
344
343
347
356
368
382
404
427
439
437
380
330
316
317
319
324
325
327
325
348
341
339
338
344
344
289
573
475
343
345
350
354
367
381
404
424
439
435
384
331
313
314
314
318
314
311
331
338
322
330
335
335
305
507
456
359
349
354
363
373
389
411
438
451
453
412
354
338
337
345
351
350
354
367
369
361
363
363
366
322
565
493
365
361
365
372
382
396
417
437
450
448
396
341
326
323
325
325
326
325
337
325
319
319
318
317
218
597
400
293
291
292
294
300
310
328
343
351
335
271
231
224
223
223
224
228
223
240
236
235
240
245
247
208
420
398
257
255
261
270
280
296
318
344
357
365
322
270
258
261
265
272
275
281
292
306
303
310
314
322
322
268
528
386
335
342
351
360
375
396
424
446
461
438
382
359
361
368
373
375
379
376
394
393
386
390
390
394
324
629
509
385
381
387
393
400
415
436
457
465
463
415
365
358
353
355
357
359
358
370
380
373
372
378
381
328
595
508
381
382
387
397
408
424
444
464
475
478
429
378
363
364
362
364
362
372
384
370
367
367
363
365
283
559
425
346
350
353
358
372
387
411
420
429
407
343
309
304
307
306
311
312
315
326
314
313
321
320
293
457
458
336
322
334
329
344
362
372
396
409
418
371
320
302
303
305
306
309
310
317
317
312
306
312
311
249
573
440
312
314
322
329
342
355
382
402
407
406
344
301
290
289
293
299
306
308
328
314
317
324
323
327
265
536
388
330
334
343
353
370
392
420
441
455
423
364
343
341
342
345
349
354
371
360
360
363
366
368
273
644
454
365
363
371
382
392
416
439
459
470
446
384
352
351
350
355
358
362
381
374
372
378
379
380
290
631
465
374
378
382
391
408
424
443
463
474
448
383
347
342
342
346
345
351
364
349
348
351
348
348
301
552
394
340
342
347
357
372
391
414
431
440
408
344
318
319
320
324
324
330
339
329
332
337
341
323
390
514
354
334
335
343
350
366
387
409
427
432
381
322
307
301
302
299
295
306
312
301
301
298
295
280
345
451
301
272
271
276
284
298
320
338
352
355
309
250
231
222
225
228
231
251
245
240
239
242
247
198
430
395
252
245
249
263
277
294
322
349
365
377
322
280
269
278
281
290
292
319
320
320
326
332
341
264
627
499
355
361
371
382
394
418
442
468
479
478
417
380
369
374
376
377
380
394
386
384
388
392
393
320
601
461
390
390
398
403
414
431
452
465
473
445
385
360
351
360
359
356
369
375
370
370
377
376
376
329
553
424
376
372
378
390
402
421
444
459
463
438
375
351
347
348
351
349
372
362
355
356
359
363
322
514
471
370
358
360
366
376
388
407
429
434
437
385
333
315
313
319
325
323
342
334
329
330
330
335
272
551
472
329
327
330
338
349
365
388
408
423
419
364
315
307
309
309
312
311
326
331
323
327
333
335
316
402
497
356
337
338
345
360
373
392
421
435
441
400
343
325
325
326
329
329
329
346
337
338
340
343
344
248
597
445
343
342
347
353
369
388
410
428
439
422
360
317
319
322
328
335
332
341
348
345
344
344
346
345
242
608
417
340
338
342
351
367
386
409
425
437
409
343
312
314
314
317
320
327
320
343
345
347
347
349
351
251
620
477
337
337
341
350
356
375
400
418
432
422
361
315
310
309
308
312
313
321
333
325
329
331
331
321
350
463
364
330
336
343
353
367
389
410
427
432
393
332
317
315
318
322
325
324
331
330
328
329
328
331
227
603
435
311
309
309
314
321
331
357
376
388
369
307
267
261
270
260
267
260
273
281
277
276
284
293
287
270
471
321
291
296
299
313
327
344
366
388
393
352
293
273
277
278
285
295
297
323
320
320
328
336
336
252
566
433
338
346
355
363
385
407
432
451
460
443
386
355
350
353
358
362
372
379
366
370
373
378
354
498
502
392
379
380
386
395
413
435
456
470
473
422
369
350
351
355
362
363
377
368
364
373
372
371
286
639
471
370
370
375
381
392
414
433
449
459
440
378
344
333
331
337
339
356
350
338
342
347
346
314
498
440
354
344
349
356
367
382
404
421
433
436
389
338
325
324
329
334
345
353
341
343
344
345
348
262
589
420
343
346
353
361
374
391
413
429
438
416
352
320
322
322
328
327
351
344
340
346
350
354
311
526
486
360
360
365
372
381
397
416
436
448
449
394
346
330
330
334
335
337
355
348
344
347
348
352
257
619
452
348
351
352
360
372
386
405
423
434
422
352
321
316
316
320
318
339
327
318
319
322
322
257
529
430
310
306
308
310
321
336
357
378
387
382
326
281
269
269
272
271
291
286
273
278
283
286
252
443
392
305
291
302
307
320
338
362
382
392
396
346
300
287
288
296
304
310
328
316
317
324
328
336
245
603
429
345
349
357
367
382
401
424
441
452
435
373
342
342
338
344
344
355
368
354
359
366
364
367
302
546
432
363
367
373
379
396
416
437
453
463
433
372
343
339
340
346
351
372
362
355
360
363
365
287
636
476
361
365
369
377
386
405
428
447
454
439
382
342
335
337
339
342
342
361
353
348
352
355
356
263
637
460
349
354
358
366
376
389
414
434
446
432
371
331
322
323
324
326
327
344
334
329
324
330
333
241
584
423
324
329
328
337
344
363
390
413
414
397
339
300
291
293
296
300
308
315
305
311
313
316
308
347
458
351
319
323
331
340
358
378
402
417
427
379
326
311
306
312
318
321
324
343
337
338
343
350
353
258
620
441
350
357
360
369
380
400
420
442
453
438
374
342
335
339
338
340
341
358
356
349
352
351
356
303
536
486
349
349
352
364
374
392
414
432
444
438
391
339
328
327
330
333
331
353
346
342
345
346
345
270
611
450
342
344
353
363
375
395
419
436
447
434
376
335
325
327
332
338
338
347
341
333
334
337
338
245
631
431
330
333
336
343
356
374
396
408
419
400
336
300
293
291
295
297
301
312
312
307
309
313
311
222
605
425
307
308
316
324
336
354
379
399
410
400
342
302
295
298
301
301
307
314
328
320
327
333
335
334
290
523
380
337
343
349
358
373
393
417
433
442
412
353
330
327
327
333
336
335
354
350
349
353
355
361
284
615
477
353
354
360
367
377
396
417
436
449
442
382
340
328
329
329
337
339
359
350
347
351
353
354
268
613
451
353
356
361
368
381
401
426
439
446
426
364
330
328
330
336
341
349
358
346
347
353
353
318
497
486
355
345
350
356
366
379
400
420
429
427
371
319
303
301
298
300
300
308
307
301
302
303
300
205
579
407
283
284
285
291
300
316
337
357
362
347
278
244
234
234
236
233
249
252
236
241
240
245
232
279
369
274
239
251
258
274
295
317
338
353
357
315
267
251
254
265
275
288
301
290
294
304
309
307
294
480
366
326
333
343
358
374
400
428
443
451
408
359
343
348
354
364
377
384
375
380
389
393
369
514
562
407
395
398
404
415
432
452
475
488
484
426
378
365
368
369
368
372
385
376
375
378
380
382
282
649
467
372
373
375
383
394
414
439
455
467
439
380
353
345
347
349
346
364
365
354
358
361
364
350
412
499
383
359
363
371
379
392
416
434
450
453
402
347
330
329
335
335
343
362
347
344
347
351
351
256
624
443
346
349
353
362
378
397
420
437
445
416
359
330
323
328
335
336
347
352
343
347
351
353
320
481
498
358
349
351
358
368
384
406
426
441
439
385
338
324
325
327
327
329
338
348
341
343
345
346
340
326
520
379
344
345
350
362
375
395
418
432
440
399
342
323
322
325
329
333
337
351
341
342
347
350
352
262
583
430
346
350
354
366
377
397
420
435
443
414
355
327
322
324
329
333
343
353
337
338
342
343
345
262
559
421
345
348
354
363
378
398
420
435
443
413
353
329
325
327
330
334
336
353
347
346
346
349
352
267
621
471
348
351
356
364
375
392
415
436
446
430
369
335
329
329
330
330
331
344
349
341
344
346
348
332
410
499
361
345
348
355
365
380
399
421
437
439
393
340
326
326
326
329
334
334
347
351
345
347
352
355
300
546
485
349
348
356
362
372
385
411
431
443
439
386
338
324
326
327
331
331
343
348
336
340
339
343
326
396
453
360
334
340
341
352
365
389
403
412
413
359
304
287
285
288
292
296
303
304
295
297
297
299
207
588
423
294
297
301
309
322
341
366
387
397
377
313
282
278
279
286
291
294
307
308
309
314
320
325
240
603
461
328
331
338
348
359
378
404
426
440
425
366
331
327
330
333
337
340
349
361
355
358
365
364
365
303
583
415
367
369
376
385
396
419
442
455
460
426
363
342
341
341
345
348
346
364
362
354
361
358
359
292
619
484
357
362
367
373
382
398
422
443
454
441
382
342
330
330
335
338
345
348
365
351
349
350
351
354
279
557
413
350
352
360
366
380
402
423
439
447
410
350
327
322
323
327
331
334
337
350
341
342
344
347
343
271
564
402
344
345
352
359
371
392
414
431
439
405
342
319
318
317
320
324
328
330
350
342
341
343
347
349
250
633
453
343
347
352
360
369
388
412
432
443
424
360
326
319
319
322
324
326
329
340
347
339
344
347
348
311
499
486
352
348
354
360
370
384
409
429
444
445
394
340
328
326
331
333
336
338
343
354
342
343
346
348
341
370
461
377
344
347
354
365
380
401
423
436
442
399
343
320
317
319
322
326
330
342
334
330
336
339
343
249
600
426
337
342
347
355
367
387
415
433
442
413
350
325
321
322
323
329
333
337
352
340
343
347
351
337
367
512
370
348
351
358
365
379
401
427
441
442
398
344
324
324
322
327
328
331
336
345
340
340
344
347
303
531
476
349
347
350
356
368
383
406
428
444
437
386
334
324
324
326
332
336
346
358
340
342
346
352
335
425
472
373
351
354
363
370
385
410
431
441
440
390
336
318
317
320
323
330
334
346
330
331
333
335
331
320
504
367
332
335
344
354
367
388
411
426
429
387
327
308
309
312
310
309
313
325
319
314
317
319
321
217
604
415
307
309
314
323
333
350
374
393
402
380
314
286
280
282
282
281
289
293
312
303
303
307
311
310
277
477
356
314
315
324
336
350
373
398
413
417
381
324
300
300
304
307
311
323
334
322
324
328
332
329
358
455
370
341
347
354
365
379
401
425
436
439
393
339
324
317
325
331
338
353
344
341
343
349
353
257
633
445
352
356
361
370
384
402
427
445
453
420
357
333
330
329
333
338
346
358
344
345
348
348
349
298
560
396
352
354
359
371
383
404
427
444
450
409
350
336
334
336
337
339
344
359
349
350
356
358
361
265
618
434
354
355
360
369
380
402
426
442
453
423
360
336
333
335
336
338
335
352
355
349
351
354
357
303
557
498
355
352
356
364
374
389
414
433
445
440
383
340
328
329
331
333
336
340
353
343
344
347
347
344
288
531
395
345
345
354
363
381
400
424
440
447
412
353
331
328
330
332
337
342
358
347
347
346
352
355
276
564
431
351
354
356
368
379
401
420
436
442
411
350
323
319
322
327
330
340
354
339
338
339
340
340
286
527
388
338
340
345
354
368
386
410
425
430
389
331
309
308
310
316
317
320
328
335
329
332
334
337
256
599
468
334
336
341
349
360
378
405
426
437
424
364
325
319
317
319
322
326
325
333
344
339
344
346
345
302
517
492
348
346
348
355
366
380
402
425
438
436
383
336
325
324
327
330
334
333
342
353
344
347
350
352
308
523
498
353
349
354
361
370
386
411
430
442
441
385
339
328
328
331
329
331
330
343
348
340
344
349
348
282
575
472
343
339
344
349
360
374
397
416
423
414
354
305
293
290
294
300
301
304
321
306
302
305
304
298
284
441
340
295
297
303
315
328
351
373
387
389
347
287
268
266
270
272
279
288
303
291
294
298
304
305
248
511
360
313
318
326
336
353
373
401
420
428
388
331
313
313
316
319
322
329
339
343
341
346
349
353
267
624
477
350
353
360
369
381
400
424
445
459
442
379
345
339
339
340
342
343
351
363
355
358
357
361
359
322
521
405
356
361
367
379
387
409
434
450
458
416
358
339
330
334
337
341
353
358
342
345
347
353
353
310
508
409
358
360
368
378
391
410
436
447
452
411
350
331
328
329
334
338
346
355
345
347
352
351
322
496
486
357
347
350
357
366
383
407
429
442
436
380
334
321
322
325
327
333
333
349
341
338
342
346
347
252
625
460
343
346
352
360
369
388
412
430
442
419
358
324
322
322
327
328
330
340
348
338
340
343
344
333
387
480
367
337
344
353
359
375
398
418
435
436
388
333
317
316
320
326
330
335
349
340
339
340
342
345
248
630
443
342
346
350
362
374
393
418
433
445
415
349
323
318
318
320
325
327
327
343
339
337
337
341
342
285
551
494
342
337
340
348
355
368
390
411
424
418
361
314
304
305
305
307
309
315
317
332
325
325
331
329
334
265
544
385
331
332
341
346
359
382
405
422
433
392
332
309
307
312
312
316
317
329
332
323
329
330
334
288
534
451
339
332
338
344
354
370
390
411
423
416
355
308
292
294
297
301
308
319
312
306
308
310
311
217
615
422
310
312
319
331
343
362
385
406
418
391
327
297
294
295
298
302
307
316
314
310
313
317
320
244
584
455
319
320
324
332
344
362
388
409
423
413
353
312
308
307
311
317
314
320
339
333
333
338
342
341
254
590
427
339
344
354
362
376
396
422
440
449
425
363
333
325
329
332
337
351
362
348
351
351
353
354
282
559
426
356
359
365
376
388
408
432
450
456
420
360
338
333
336
343
344
363
361
353
357
360
360
340
450
506
371
356
359
366
378
392
415
436
449
451
397
347
335
335
339
339
339
356
358
349
351
353
353
347
352
519
383
354
356
363
372
384
405
426
442
447
404
347
329
328
330
333
334
346
352
343
345
348
351
351
289
540
406
356
358
364
371
384
405
429
443
450
415
355
328
327
325
330
334
337
354
348
341
341
343
345
302
549
456
347
344
348
357
368
385
404
427
438
433
380
332
318
318
319
324
325
346
339
329
334
337
341
290
548
461
339
337
341
350
358
378
400
421
434
426
369
326
316
317
320
324
323
343
336
332
333
336
339
293
537
478
340
336
339
348
358
373
397
420
430
423
365
323
315
315
317
323
327
343
337
335
336
338
340
254
624
461
341
346
353
363
372
387
412
432
443
422
361
329
323
325
329
335
336
353
343
341
348
349
350
272
602
477
345
345
347
353
363
379
400
417
427
410
347
305
295
292
289
287
287
296
299
286
283
282
283
277
227
428
314
259
262
265
271
286
302
325
337
345
307
251
228
227
229
236
242
262
262
253
257
262
268
239
427
395
290
282
288
299
314
332
359
383
397
397
346
299
292
296
301
308
316
330
329
326
334
341
344
286
583
483
350
354
357
367
379
397
422
446
458
449
391
350
343
347
348
355
357
365
379
369
372
375
379
380
297
611
443
377
378
385
393
405
425
450
464
473
439
378
353
352
353
356
354
355
366
373
364
368
371
369
365
359
532
404
370
372
380
387
405
428
451
467
470
428
374
351
350
348
351
352
351
369
370
366
363
366
368
312
608
472
365
365
371
375
387
403
424
441
450
440
383
339
325
325
328
330
335
341
351
336
337
337
340
338
306
509
383
344
346
352
362
377
395
421
433
437
396
338
319
318
318
322
326
327
330
346
339
340
342
344
346
253
601
422
343
345
352
361
374
392
418
435
443
416
353
325
323
324
325
329
334
339
350
342
345
349
349
306
530
481
351
347
355
358
367
382
404
423
433
423
368
315
298
292
288
287
289
293
292
276
275
272
272
213
485
380
259
250
252
256
261
279
298
318
329
322
261
215
207
210
213
220
231
245
247
243
250
255
260
187
530
404
272
278
287
298
312
335
361
387
403
394
338
303
299
305
311
317
323
333
352
342
348
353
360
345
430
514
382
368
371
378
388
406
426
451
467
466
419
367
351
353
353
355
358
364
379
370
369
372
376
375
287
613
464
369
374
378
388
398
421
443
460
472
442
381
354
347
349
353
358
363
374
376
367
371
373
372
308
629
488
367
371
373
380
393
409
431
448
458
450
387
346
334
333
338
344
350
355
350
348
347
346
354
266
645
477
352
352
357
366
377
395
420
442
452
432
365
333
327
328
330
334
340
356
351
346
350
353
356
276
621
488
349
351
353
360
372
389
413
434
447
431
370
336
330
329
331
337
339
340
353
347
347
344
352
355
277
620
475
347
348
354
358
369
385
404
423
434
422
363
321
311
309
316
317
321
335
335
326
328
327
330
279
570
445
330
324
322
334
340
361
390
404
416
407
352
320
314
310
320
331
352
350
342
332
329
337
329
438
435
367
342
347
354
365
377
398
419
437
432
377
333
323
329
335
340
351
359
364
348
351
354
361
319
575
492
370
367
370
376
387
401
423
450
460
455
392
340
332
335
341
334
342
345
357
345
343
345
348
340
374
503
376
344
345
356
364
379
400
424
439
441
403
335
324
321
327
328
334
341
354
340
335
341
345
337
327
538
383
343
345
352
361
375
393
413
426
431
380
320
297
292
290
284
281
291
279
264
260
257
253
182
490
368
226
219
218
221
229
239
257
275
280
272
209
167
162
165
166
172
177
199
192
191
199
206
214
116
546
325
233
243
253
268
285
309
337
363
380
358
300
281
285
290
299
308
315
334
327
329
337
340
347
257
626
419
353
359
369
380
398
419
445
465
475
446
384
360
362
368
371
379
386
401
391
390
392
395
398
316
647
455
392
394
400
409
420
438
457
471
478
442
381
359
360
360
362
365
374
379
367
369
371
372
359
423
536
385
366
370
380
391
406
425
443
453
456
406
353
339
339
345
348
352
371
367
358
360
364
365
324
531
506
369
369
371
375
385
402
422
442
453
448
394
353
344
344
346
347
346
358
364
353
355
358
358
344
399
482
379
354
359
367
373
389
408
428
440
442
391
341
326
324
327
329
334
345
349
334
335
338
342
319
457
469
358
343
348
354
365
380
401
420
435
432
381
335
321
321
327
333
335
344
349
338
341
344
348
341
353
517
374
344
347
352
364
376
397
421
433
435
389
335
320
319
321
323
327
326
345
343
337
341
341
346
297
530
491
347
344
350
357
369
382
406
426
437
429
372
328
321
321
322
326
328
325
346
342
340
342
346
349
291
555
488
344
343
346
354
365
381
404
425
441
431
372
333
326
326
328
332
336
336
351
355
347
347
352
355
330
459
503
365
355
357
362
371
386
405
427
439
440
389
339
326
327
326
326
326
327
328
324
343
332
330
331
329
328
231
593
423
312
312
314
317
323
340
359
374
383
362
299
264
254
252
255
257
257
259
260
263
275
267
270
271
273
263
318
423
298
272
279
284
294
314
337
362
373
380
339
286
271
271
277
285
295
300
304
330
321
321
328
334
336
246
599
438
340
346
354
364
380
403
429
448
457
427
369
344
344
345
351
355
361
366
383
370
371
375
378
377
338
577
422
375
379
387
399
411
430
450
466
471
428
372
360
360
356
363
369
369
376
379
367
370
374
374
371
321
598
408
362
362
369
374
388
406
432
446
452
407
349
332
330
332
335
337
342
345
363
352
353
356
358
362
269
645
470
349
350
353
363
372
390
417
440
447
431
370
337
334
337
337
341
345
345
366
358
357
357
358
361
280
632
475
344
345
350
357
370
386
407
427
437
418
356
319
313
311
316
320
327
328
343
333
329
332
333
338
238
637
413
329
332
336
350
359
381
402
419
427
397
338
310
306
309
314
319
326
335
330
326
327
331
329
237
620
436
328
330
338
349
361
381
409
413
425
402
341
315
313
314
320
329
326
343
340
334
335
341
345
279
601
483
343
344
348
357
371
385
407
425
436
427
371
333
329
330
333
336
336
352
350
345
348
352
353
307
530
493
349
348
351
360
371
387
408
427
439
436
382
339
331
329
330
332
334
350
338
336
339
341
345
265
610
467
338
341
377
339
356
377
402
419
430
418
361
328
322
339
338
320
330
349
327
325
329
332
333
231
626
418
323
325
331
337
348
361
382
396
405
379
318
288
283
284
281
283
293
302
287
291
294
295
295
213
523
352
292
285
287
317
300
325
354
371
377
341
288
266
270
272
280
279
299
310
306
304
309
315
320
238
549
410
320
331
336
346
362
381
402
418
429
402
345
323
322
327
333
337
337
359
354
347
349
353
355
275
636
478
346
346
349
356
367
378
397
415
421
408
347
309
304
302
305
309
311
323
315
313
315
318
319
223
631
431
317
320
328
338
346
363
385
407
417
397
338
309
307
309
311
314
315
328
332
331
335
340
343
284
569
488
344
343
348
356
367
383
406
427
438
432
377
337
333
334
339
341
347
351
365
356
361
364
365
364
341
533
413
371
376
379
391
405
426
446
460
462
420
368
351
348
351
356
355
360
370
367
363
364
365
365
292
637
485
353
355
355
358
370
382
400
416
421
406
346
310
300
300
301
303
311
318
312
305
307
309
310
221
604
434
303
304
309
315
328
346
370
391
403
382
323
293
291
292
296
303
305
311
329
319
322
329
333
322
372
523
357
338
343
352
361
383
403
426
445
445
398
351
335
342
340
346
350
358
374
360
362
365
365
366
315
520
417
360
365
373
382
397
418
442
453
455
418
361
343
338
339
346
350
353
366
348
346
348
349
345
326
501
388
342
344
349
359
368
389
409
423
422
371
314
294
291
293
296
298
304
313
299
300
301
305
306
229
539
360
301
304
310
318
331
349
376
392
397
359
303
287
286
289
293
299
301
313
322
317
320
326
332
317
400
490
349
338
341
350
364
379
404
427
441
440
387
337
324
324
327
329
332
348
353
343
343
345
347
348
303
512
406
351
355
362
372
387
409
433
446
448
406
353
336
334
338
343
349
356
367
354
353
355
360
356
308
554
404
357
358
365
375
388
411
434
447
451
407
352
338
334
334
336
340
347
357
347
349
352
354
348
339
534
384
351
351
359
368
382
401
424
439
443
393
344
328
326
329
330
332
341
349
339
341
346
349
333
442
464
365
352
353
363
372
388
410
434
446
446
395
351
339
336
339
349
356
370
353
352
354
359
360
279
594
435
353
356
361
367
379
398
421
434
445
408
350
326
322
324
329
337
350
337
333
335
335
339
257
625
445
332
334
343
349
361
380
404
422
432
409
349
317
313
314
318
320
324
340
333
331
333
336
338
241
650
434
337
338
346
355
366
387
409
426
434
409
350
325
323
323
325
331
331
352
342
340
342
345
348
249
652
440
344
345
350
360
375
390
411
428
438
413
355
328
327
326
327
330
330
351
341
338
337
341
341
247
640
446
337
338
342
352
365
382
401
417
427
407
348
318
315
317
319
323
329
341
330
333
336
336
337
285
516
380
338
340
346
356
368
387
406
420
423
384
333
318
316
316
317
322
341
332
326
333
332
337
253
594
442
333
338
345
355
365
382
400
414
422
401
340
313
304
307
313
314
327
324
321
323
327
331
280
532
463
334
334
339
348
356
375
396
414
426
414
358
321
315
313
315
319
329
345
333
333
336
342
346
257
611
455
339
342
351
360
372
389
414
427
437
410
354
328
321
325
326
330
351
346
337
338
340
344
300
539
461
347
340
344
353
364
379
399
417
429
414
355
316
308
308
312
317
327
334
321
321
321
322
323
232
559
391
314
316
324
332
340
361
380
395
402
363
304
285
284
287
290
288
300
309
301
302
308
313
308
292
484
350
313
318
323
336
348
372
395
408
411
362
313
298
300
303
305
306
327
326
319
321
323
325
328
317
467
378
334
339
344
357
372
394
413
426
426
382
330
316
315
321
326
330
343
343
333
335
338
344
341
296
533
394
344
346
356
363
376
398
421
437
440
395
341
326
324
324
331
335
332
354
348
342
345
350
348
304
530
496
354
352
356
361
371
383
408
430
437
433
374
333
326
330
332
335
339
336
354
357
354
357
359
364
332
498
494
370
361
368
369
380
398
418
440
452
445
392
347
334
331
333
337
340
339
358
346
343
344
347
348
262
630
461
339
344
348
357
366
386
409
427
438
420
361
325
318
320
320
323
330
332
352
339
338
340
340
344
246
647
452
339
341
347
358
367
384
408
425
435
414
351
320
317
318
320
324
327
329
346
336
336
338
342
344
246
647
452
338
339
344
353
365
382
404
422
430
409
348
318
318
319
322
327
330
331
350
343
342
344
348
349
290
570
492
348
345
346
352
361
377
396
415
429
421
360
320
311
313
315
315
319
325
341
328
328
328
326
332
240
558
412
322
324
332
338
346
366
390
405
413
384
323
293
288
288
293
300
298
318
310
306
310
315
318
224
599
434
314
316
324
333
345
363
385
404
414
390
328
295
292
293
293
298
299
311
300
296
297
297
295
186
586
375
280
279
281
286
294
311
330
345
350
317
248
223
220
220
221
226
222
243
240
234
233
238
245
160
518
386
245
248
256
267
280
303
328
349
361
346
285
245
246
250
256
264
276
288
283
290
297
303
310
227
542
398
327
334
347
357
372
395
420
437
448
413
360
347
353
356
362
365
383
380
374
377
380
382
371
412
597
405
387
393
401
410
426
445
466
480
487
443
397
392
396
399
402
401
422
411
406
407
407
406
348
615
558
397
398
403
409
420
437
453
468
478
468
408
365
357
356
357
359
357
377
363
356
360
361
361
290
588
494
358
358
362
370
381
398
420
434
445
433
374
336
328
331
336
338
339
357
354
350
353
356
358
317
522
468
356
350
352
356
357
369
388
404
413
409
355
307
294
297
301
307
313
329
314
310
314
317
321
233
594
434
324
328
333
344
357
375
396
413
420
400
343
313
311
313
315
321
326
341
328
327
330
334
336
238
608
409
333
336
343
352
365
383
407
421
430
397
340
320
316
319
320
322
339
343
333
336
339
342
328
395
502
360
344
347
356
367
384
406
429
439
440
389
344
330
331
334
341
342
361
352
349
354
353
355
261
630
458
346
350
355
364
377
399
417
431
439
418
358
330
326
329
334
336
354
358
345
352
351
357
342
440
480
378
362
367
375
386
401
423
444
454
448
403
356
342
341
341
352
363
363
352
352
356
360
326
519
467
364
351
355
361
371
386
406
420
430
419
362
317
307
307
310
318
329
324
316
323
326
327
238
617
452
326
329
333
343
355
373
397
416
426
402
341
313
312
313
316
323
340
330
329
332
335
338
244
589
413
337
339
345
356
370
390
415
432
434
398
342
328
327
328
327
336
351
340
339
342
345
348
285
526
412
350
355
361
369
382
405
425
440
441
395
344
328
324
326
331
347
342
332
335
337
337
273
583
456
333
334
338
342
358
372
399
420
426
407
343
309
304
306
312
320
330
318
319
323
328
322
321
507
362
333
338
345
357
373
397
419
434
432
374
328
319
320
324
326
342
345
338
345
346
349
313
494
500
354
349
353
361
372
388
409
430
442
429
370
329
323
324
323
324
337
345
336
338
339
342
339
300
532
376
335
337
339
353
366
387
410
424
423
372
321
304
305
309
311
308
328
320
314
320
323
327
232
561
400
324
326
329
339
351
373
397
414
418
378
324
309
307
308
311
315
336
330
329
336
338
340
265
548
403
340
345
352
363
375
394
412
430
434
390
339
326
324
329
333
345
353
346
345
350
351
314
526
474
359
350
352
361
367
388
409
424
436
418
356
318
313
315
321
325
340
339
328
329
331
335
254
612
453
331
335
336
349
362
381
402
419
424
398
339
310
305
307
312
322
336
333
328
330
333
335
235
640
436
335
337
344
351
362
381
404
421
429
391
332
313
311
315
316
315
331
333
327
331
333
335
251
610
459
330
336
343
348
364
385
410
426
436
411
349
321
318
318
321
324
327
345
336
337
340
348
351
256
599
426
349
352
360
368
379
398
419
435
440
404
347
327
321
329
329
330
334
354
349
347
349
350
355
276
609
471
350
352
354
363
373
392
414
428
438
414
359
326
319
319
321
323
322
338
338
330
333
332
333
267
583
454
332
335
337
345
358
377
398
417
427
408
347
314
308
310
312
319
320
333
338
328
333
335
339
309
461
481
350
339
350
354
365
379
402
424
436
428
370
330
322
324
325
327
328
330
332
349
341
340
343
345
347
248
618
426
338
342
347
355
366
383
406
423
432
401
342
319
315
317
320
322
323
330
335
351
337
341
342
342
347
282
543
394
341
345
346
357
367
385
407
420
420
380
321
297
290
285
283
285
280
274
283
277
263
258
253
246
183
463
340
216
208
206
208
218
227
245
261
266
248
183
138
126
118
119
123
122
117
137
129
117
119
121
128
43
416
247
124
130
141
153
172
194
227
251
266
246
183
152
153
158
169
178
191
200
226
236
236
246
259
267
222
490
430
300
305
315
331
352
377
408
437
459
452
398
363
362
369
377
386
394
403
405
431
428
429
433
439
442
360
657
589
440
442
447
457
465
485
510
530
543
521
458
423
410
410
409
411
414
415
411
430
419
416
416
412
412
324
653
499
398
399
402
410
420
441
462
478
484
458
391
359
350
349
354
358
360
360
377
375
367
368
370
370
302
623
500
367
367
373
381
391
406
432
453
464
450
381
345
335
333
334
339
340
346
341
360
354
352
356
352
354
255
646
455
343
346
351
360
370
389
414
435
451
426
360
323
320
324
325
323
329
330
343
354
344
348
350
352
320
486
463
361
347
356
363
378
395
420
446
461
455
406
354
336
336
338
342
347
350
352
365
349
350
350
351
339
394
475
378
351
357
363
376
392
412
438
453
455
400
342
325
324
325
329
330
336
344
352
343
347
351
354
320
486
474
355
344
348
354
363
381
405
430
444
441
385
333
320
319
321
325
328
330
332
336
347
340
342
346
348
304
524
484
348
345
347
355
365
381
403
428
443
443
389
336
323
324
325
326
330
333
335
336
346
354
347
352
352
355
330
454
510
364
354
357
365
373
386
409
433
446
449
402
345
328
327
325
326
330
331
334
336
336
353
352
347
345
349
354
267
637
468
347
348
353
361
372
389
412
434
446
441
382
335
324
323
326
328
330
334
338
338
359
351
349
351
352
354
260
623
438
353
356
361
367
379
402
425
441
452
434
366
332
324
323
329
328
328
334
331
346
341
338
340
342
345
262
555
425
337
342
345
353
363
382
404
423
432
413
349
317
310
312
315
317
318
319
320
333
334
332
334
339
341
253
636
453
335
339
341
349
360
375
399
421
432
421
360
317
309
310
310
312
313
318
317
333
328
327
328
330
334
236
625
431
330
333
337
344
358
375
398
419
430
415
352
313
308
309
311
313
319
319
318
336
338
331
333
336
341
277
570
469
337
337
344
350
363
377
400
421
433
430
375
326
316
316
318
321
324
326
323
343
339
333
336
341
345
266
601
467
341
342
345
355
367
383
407
429
441
433
377
330
321
322
323
326
330
337
345
360
347
348
352
355
352
292
517
412
349
355
360
369
377
401
423
437
443
419
354
323
318
317
319
322
326
330
341
325
326
326
329
326
287
480
378
328
333
338
349
361
383
409
423
429
396
332
308
307
311
316
320
323
328
343
334
331
336
339
341
256
587
414
340
346
354
362
374
392
416
433
440
416
354
325
321
321
323
328
330
334
343
351
340
343
347
349
350
291
564
398
349
351
357
367
380
399
424
439
447
418
356
331
325
327
328
330
334
338
336
358
348
346
349
352
353
267
647
470
351
354
359
369
378
394
416
437
447
439
383
337
328
327
328
332
333
334
335
336
358
353
349
348
352
354
308
536
492
352
348
351
357
366
380
401
420
433
437
392
338
323
322
322
326
332
331
333
330
349
346
342
343
349
352
298
575
479
355
358
365
372
379
396
421
440
454
455
401
354
337
334
336
335
339
339
343
359
343
347
345
350
349
268
578
428
349
349
356
364
376
393
414
432
437
414
351
316
307
305
308
311
315
317
337
324
321
324
325
327
247
603
443
327
330
335
347
356
375
398
420
430
423
361
318
311
312
317
322
324
326
334
340
336
340
343
347
329
399
502
361
345
344
352
360
373
392
421
434
434
394
338
317
316
314
316
319
319
334
333
328
332
339
339
296
535
437
339
341
346
351
365
379
403
423
438
434
381
333
315
318
318
321
329
339
338
326
328
332
330
309
449
446
354
338
343
349
362
379
407
428
443
446
393
342
328
327
330
332
339
350
341
338
338
341
342
321
437
495
357
342
344
349
360
373
393
415
430
432
381
330
315
313
315
316
320
329
339
334
334
336
338
342
248
608
429
336
341
345
352
366
386
412
431
437
416
353
320
312
314
320
322
339
340
327
331
331
334
336
249
590
414
333
339
343
355
370
388
411
427
436
408
345
316
310
313
313
319
331
332
323
324
327
331
332
247
581
398
329
331
337
346
357
379
404
421
431
398
337
312
311
309
312
317
325
336
328
331
335
338
340
279
564
472
338
338
343
351
361
377
402
425
435
431
373
324
317
316
320
324
320
340
340
332
337
339
343
344
265
556
414
341
344
350
360
372
397
423
436
443
416
351
323
316
319
320
324
340
344
330
332
333
335
338
252
575
416
333
336
343
352
367
385
408
425
436
404
343
313
310
311
315
317
323
331
322
323
325
331
333
260
594
457
328
327
335
340
350
365
392
413
424
412
354
314
309
308
308
312
313
333
331
325
330
331
332
331
251
554
393
331
334
339
347
358
378
402
418
426
394
333
307
302
305
308
311
312
331
324
321
327
328
332
286
516
447
334
331
336
341
352
370
391
417
427
424
369
322
308
308
310
315
316
333
332
322
326
331
332
332
329
457
377
339
346
353
365
379
402
426
438
443
401
343
323
320
322
326
334
342
352
338
340
343
345
347
266
580
411
345
348
353
361
374
394
417
434
442
407
347
324
320
324
325
327
329
335
347
338
339
344
347
349
253
629
436
343
346
349
358
370
389
413
432
439
421
357
327
326
323
326
329
332
342
351
342
341
341
347
346
259
595
433
346
349
355
364
376
398
420
435
443
422
359
324
317
320
324
327
331
336
351
336
339
339
342
345
257
596
428
341
341
346
356
368
385
405
422
430
407
344
313
308
311
314
318
321
330
330
324
327
331
332
303
458
472
339
333
333
338
347
359
381
404
415
410
357
306
294
292
291
293
295
294
304
310
304
306
309
313
298
348
444
336
308
310
318
329
341
366
388
404
409
366
308
286
284
288
294
300
304
321
314
310
315
316
318
246
586
428
319
319
322
331
341
356
381
398
410
396
336
295
286
288
291
295
302
311
315
307
310
315
318
315
300
497
363
327
330
338
347
363
385
411
426
430
390
334
317
317
320
323
330
332
340
350
341
345
347
349
337
381
509
377
355
355
362
371
384
408
429
441
446
399
347
326
325
329
330
334
335
349
350
348
351
354
354
329
463
462
367
353
356
362
373
387
410
426
442
440
391
340
322
320
324
329
337
343
354
337
341
342
345
344
300
509
398
345
348
353
363
376
397
420
433
436
398
341
320
316
318
320
325
330
342
339
336
340
343
344
309
507
486
352
346
351
356
366
382
402
426
438
436
382
334
324
323
325
328
332
334
334
348
343
343
346
348
353
260
635
463
346
348
353
360
371
384
407
427
437
423
364
327
321
322
321
322
327
331
347
338
338
342
341
343
254
598
435
338
340
344
354
369
384
408
425
434
414
353
321
312
314
316
319
323
331
342
330
333
333
337
336
303
490
384
336
338
343
353
366
384
409
422
427
386
327
309
306
307
312
316
320
333
328
326
329
332
334
273
563
465
335
335
338
347
358
373
398
418
429
422
364
321
310
309
313
318
320
321
339
334
332
337
339
342
301
510
479
345
340
344
352
363
381
402
423
438
436
379
333
318
320
321
324
327
327
346
344
338
342
344
347
324
452
456
360
348
350
359
366
382
404
430
441
444
396
343
326
325
325
332
335
340
355
340
338
343
344
345
265
615
458
344
343
348
356
365
383
403
421
430
411
347
311
301
300
301
303
306
305
322
317
314
314
317
317
269
494
452
321
313
314
320
329
345
367
390
401
397
344
296
284
283
285
290
294
295
317
315
311
315
315
321
302
417
464
342
328
333
340
349
367
389
413
427
430
380
328
314
314
313
318
322
326
347
337
334
339
343
345
294
566
453
348
348
356
362
373
389
413
432
443
435
379
333
321
321
324
328
331
338
351
338
337
340
342
345
254
622
444
344
346
353
361
374
393
416
433
443
422
357
328
322
322
327
330
338
337
354
344
343
346
351
352
282
600
479
348
348
354
359
369
383
407
427
437
428
369
324
315
319
318
323
326
325
343
342
336
338
340
340
324
418
458
357
338
341
347
354
370
392
411
424
425
378
327
309
307
311
313
319
327
339
326
328
331
335
338
250
588
432
342
345
351
359
372
390
414
429
437
411
350
324
319
321
321
328
333
347
333
334
335
340
341
254
621
456
338
341
344
352
364
380
404
426
435
418
355
320
316
317
318
321
326
329
344
335
336
339
342
344
269
600
467
339
343
346
355
364
379
403
422
435
425
365
325
316
316
319
321
327
324
343
340
336
337
338
341
316
459
463
351
342
343
351
361
377
399
421
432
435
388
333
319
320
325
326
329
329
347
347
340
340
343
346
344
310
493
397
348
349
354
365
378
397
416
430
435
401
337
316
310
313
317
320
324
324
332
337
327
331
331
332
324
329
487
364
329
329
334
344
356
375
397
410
415
375
317
296
293
293
295
300
300
300
310
319
311
313
315
316
313
270
504
357
312
314
320
329
341
363
384
399
407
373
315
291
289
292
295
301
301
304
303
325
317
317
317
320
323
236
594
431
327
326
334
343
353
376
397
418
429
415
356
317
310
313
316
320
323
327
343
342
335
338
341
343
282
590
458
347
345
350
356
367
383
408
429
439
431
374
326
319
319
323
325
331
336
350
337
336
341
342
346
252
623
437
344
346
348
359
369
389
413
433
442
417
354
325
320
322
326
329
332
334
338
351
342
343
347
351
351
287
563
402
348
351
357
363
375
396
418
433
443
412
354
325
325
325
327
331
332
334
351
344
344
348
349
351
274
618
465
348
351
354
361
373
386
410
429
434
422
361
322
312
310
311
313
313
320
329
312
311
310
309
309
237
489
365
296
297
302
305
318
336
355
367
372
338
274
244
238
238
240
243
251
262
258
252
255
261
264
188
531
388
269
271
277
289
301
323
346
367
380
374
315
279
276
278
283
291
300
317
310
309
315
321
326
255
588
457
334
339
345
354
369
390
413
435
447
436
379
339
334
335
339
341
345
360
359
354
356
360
363
284
637
484
360
365
371
378
390
406
428
446
457
441
383
346
342
346
348
352
357
367
357
358
361
365
365
287
588
431
360
364
368
376
388
408
428
442
450
420
358
335
336
338
340
339
357
349
344
347
351
355
344
394
453
384
356
358
366
375
392
412
433
445
447
407
358
337
337
341
344
364
357
347
347
350
353
343
387
467
380
352
355
359
369
382
399
421
433
432
385
332
318
315
319
320
338
334
327
329
331
333
328
329
485
369
336
339
346
355
369
388
411
424
425
380
327
311
310
312
313
327
332
326
327
330
332
334
247
603
436
337
338
345
353
365
381
405
421
429
409
349
319
311
312
320
326
339
329
327
333
334
339
274
579
467
340
344
343
352
365
380
409
423
433
419
362
323
319
319
331
342
364
353
358
318
326
338
270
556
416
345
353
349
369
384
405
428
443
457
405
340
326
329
333
335
341
345
332
331
336
340
327
380
496
363
336
337
342
351
365
386
406
420
417
364
313
298
301
303
303
313
313
310
313
315
318
275
496
460
323
320
323
329
338
356
379
400
412
406
346
307
300
303
306
308
312
328
324
323
328
332
334
244
577
411
336
338
342
352
366
387
411
429
439
403
345
327
323
327
332
334
346
349
342
344
345
348
296
574
459
350
347
355
364
372
392
413
428
436
425
368
327
314
315
320
322
332
340
325
326
331
332
319
358
474
358
330
334
342
354
366
390
410
425
422
371
320
308
306
310
315
320
337
332
329
332
335
340
242
628
439
341
340
344
354
368
386
409
430
439
410
352
322
321
321
322
326
333
346
336
339
342
345
342
305
527
387
344
347
354
364
379
403
425
437
442
400
342
327
326
327
333
333
340
354
343
346
347
352
344
321
502
394
346
350
358
368
384
401
426
434
437
394
339
317
319
325
329
332
345
337
327
331
332
333
245
625
446
325
328
334
341
354
373
399
414
423
399
336
305
298
300
302
310
319
323
314
316
321
324
292
452
462
336
323
328
334
346
362
384
404
418
416
358
313
305
307
312
315
320
328
338
328
332
333
338
339
274
558
393
339
340
349
357
370
390
411
427
433
392
334
314
313
316
320
324
326
336
345
336
339
340
341
340
293
540
385
340
342
347
355
371
391
416
431
435
394
337
317
316
318
320
324
329
328
346
338
341
342
343
346
251
594
426
342
343
348
353
370
387
408
427
433
402
341
311
308
309
308
311
308
324
326
313
312
317
315
272
493
426
308
301
306
307
317
329
353
371
378
371
313
266
252
252
255
260
262
277
269
261
265
264
271
182
544
379
266
268
274
285
301
321
346
365
375
349
287
259
256
263
271
277
291
299
291
294
301
307
292
406
465
335
321
326
336
349
372
394
419
437
434
380
335
324
326
331
334
339
349
364
357
356
361
362
364
282
598
427
362
364
372
381
393
414
437
455
461
424
364
342
342
343
344
348
349
369
362
359
362
363
364
302
581
499
361
363
366
372
380
396
418
437
448
436
376
336
332
331
335
334
340
343
357
348
347
351
353
356
270
570
428
353
353
360
368
381
406
428
445
451
416
355
333
330
333
342
344
354
363
349
351
352
353
335
446
473
367
349
354
358
370
384
408
426
435
429
373
326
311
310
316
320
326
342
329
327
328
332
335
246
573
404
329
330
334
345
357
377
399
415
423
381
322
304
302
304
307
313
318
331
323
325
328
332
329
297
521
375
336
338
344
354
368
390
415
431
434
386
330
315
316
320
324
330
339
348
342
343
347
349
341
369
512
373
350
353
358
368
382
400
424
436
437
388
337
323
321
324
327
325
338
344
337
338
342
343
339
315
494
382
337
338
341
352
367
389
413
427
425
378
322
303
299
304
306
313
327
320
318
320
322
327
252
592
436
325
328
334
342
353
374
398
417
429
404
343
309
303
306
307
315
324
325
319
322
325
329
281
532
454
333
329
335
344
356
371
396
417
430
417
355
317
308
310
313
319
321
339
331
331
334
335
338
238
620
429
335
335
340
350
361
383
404
423
433
398
338
315
313
314
317
321
327
342
333
334
338
340
343
249
617
445
341
344
350
360
373
391
417
432
439
413
351
323
319
323
323
327
327
345
342
338
340
342
346
296
530
487
345
342
348
356
364
380
404
424
435
428
372
331
320
321
323
323
324
339
344
338
341
344
346
322
424
482
359
340
347
354
364
379
398
418
433
429
380
329
316
318
318
320
325
333
347
331
334
336
337
339
275
521
404
338
338
348
357
368
391
411
427
428
390
330
310
307
309
314
318
321
337
327
326
329
332
335
238
617
437
333
334
342
352
361
380
404
420
428
401
338
312
307
309
312
318
323
333
333
327
332
334
335
253
603
465
333
336
339
347
359
376
401
418
428
411
347
316
312
312
316
319
324
327
327
343
334
338
340
343
342
293
539
388
342
342
349
359
371
392
411
426
432
393
333
313
311
314
318
320
325
325
340
334
335
338
340
339
247
598
444
333
340
342
345
358
377
402
422
429
404
346
312
307
310
312
316
318
326
333
326
332
333
337
309
480
457
350
340
344
352
362
377
400
420
434
428
372
328
318
319
323
325
330
337
351
339
341
342
347
342
340
519
378
345
346
353
362
376
396
420
435
434
385
331
317
317
317
318
323
325
328
341
332
335
336
339
332
332
510
364
334
333
339
349
363
382
406
419
425
375
319
304
300
301
302
306
306
316
327
313
316
317
324
318
328
471
363
329
331
339
343
366
385
408
422
420
378
323
303
306
304
313
317
318
333
330
326
327
330
334
257
618
441
335
337
343
352
365
384
406
420
430
408
344
309
305
304
307
311
318
331
324
321
323
326
329
235
624
440
326
330
335
343
356
376
399
417
430
400
338
311
308
309
314
319
322
331
338
332
336
337
341
307
474
492
349
341
346
353
365
379
403
427
443
439
382
333
320
321
325
329
330
329
348
347
342
344
347
351
313
518
474
356
348
354
358
370
387
415
431
446
438
384
339
320
322
325
331
334
343
354
341
340
341
346
344
333
484
390
348
348
355
367
381
402
423
435
439
390
335
318
312
313
319
323
333
332
325
328
332
333
287
519
464
336
331
334
341
352
368
392
412
424
416
355
314
307
305
307
310
316
324
327
322
325
327
330
292
480
476
335
330
332
339
348
363
386
409
423
416
357
313
305
304
306
307
311
319
329
324
325
329
333
332
265
539
384
329
331
337
345
359
380
402
418
424
383
327
309
308
308
310
314
318
329
322
325
327
328
331
270
516
381
329
330
338
345
359
381
406
421
425
381
325
306
305
305
309
312
309
330
324
321
323
325
327
290
500
446
338
329
336
346
356
372
392
410
424
418
363
317
306
308
313
316
317
334
330
324
325
328
330
293
503
457
335
327
332
339
349
366
388
408
421
411
351
305
295
294
294
297
296
311
303
298
301
300
298
239
516
433
286
282
284
289
303
318
340
357
368
355
290
253
247
244
244
249
247
266
266
264
270
273
280
267
333
449
309
290
295
305
318
334
358
384
399
403
353
305
295
295
297
304
309
317
332
324
327
333
338
342
256
621
464
347
350
355
367
379
403
428
449
461
436
374
344
339
340
343
346
349
368
369
361
363
366
365
354
417
490
391
366
367
377
386
401
424
443
458
455
405
351
333
334
335
343
349
352
366
351
349
353
356
357
270
637
475
352
352
356
365
375
397
421
439
451
427
365
335
330
331
333
337
337
345
355
346
348
350
352
353
265
593
419
348
351
358
368
379
399
421
439
445
408
347
326
324
323
325
328
331
344
353
341
344
345
344
343
297
521
393
343
348
353
360
376
397
420
438
440
399
343
322
319
322
328
331
340
351
338
340
346
346
349
264
586
433
344
347
352
362
376
394
419
432
443
409
352
324
320
321
326
332
334
347
336
336
335
338
340
244
621
437
330
336
341
350
363
382
405
419
430
397
338
310
308
308
312
316
318
326
335
324
327
330
334
322
363
498
353
329
333
343
351
364
387
411
426
426
372
324
311
313
312
316
324
331
345
334
333
335
333
343
250
569
414
334
334
342
354
370
389
410
430
434
401
339
320
316
318
317
326
334
336
328
329
330
332
274
543
450
325
329
329
332
344
366
388
408
420
415
335
346
307
273
299
292
314
309
303
310
281
306
273
413
434
317
311
313
320
330
348
370
394
409
400
342
300
291
293
294
298
305
315
311
308
313
317
318
252
553
444
318
318
322
329
340
357
379
400
413
399
340
306
304
304
307
311
315
321
335
328
333
337
341
343
258
590
423
345
345
353
364
378
400
418
434
444
413
356
326
327
325
326
333
346
352
344
344
348
353
351
310
506
408
355
358
365
373
389
410
432
446
450
411
357
342
339
341
346
353
364
357
351
352
353
354
269
620
467
350
349
351
358
368
385
408
426
433
411
350
320
318
317
318
323
322
333
332
324
325
325
326
234
609
432
318
317
319
330
338
353
373
390
400
379
317
288
284
285
289
293
292
311
304
303
306
310
311
263
508
453
319
315
319
329
339
357
378
394
407
400
346
308
300
300
303
308
310
331
328
326
334
337
343
294
552
484
350
348
354
361
372
387
409
426
436
431
378
340
333
334
339
342
339
360
354
350
354
357
357
292
595
487
357
357
360
366
380
394
415
429
440
431
375
335
327
331
325
323
333
344
332
333
335
336
337
277
506
400
339
341
348
360
374
391
412
421
427
395
341
318
316
318
324
331
343
327
325
329
333
332
252
533
416
332
336
345
354
365
381
403
417
427
392
341
317
311
315
317
325
335
325
327
329
331
331
280
497
385
331
335
342
353
369
385
406
419
422
380
327
318
319
323
330
343
355
342
343
348
352
351
308
519
390
351
351
356
366
376
396
414
427
434
390
335
318
317
323
319
337
333
330
336
336
334
280
553
449
335
333
337
342
351
365
382
394
400
380
317
280
268
267
265
279
276
260
259
260
259
249
279
382
284
252
256
262
273
288
310
329
340
338
287
243
233
238
243
247
271
262
259
264
270
275
238
447
415
295
295
301
311
323
343
369
393
405
401
348
312
309
311
317
326
340
333
331
339
346
352
277
602
464
353
356
365
372
385
403
425
441
451
423
367
339
337
338
346
362
362
349
348
350
352
345
378
475
383
353
352
359
372
388
406
427
435
432
378
334
321
320
323
325
345
341
334
337
340
344
291
569
471
345
345
349
355
369
388
410
428
440
425
368
335
329
331
333
335
351
350
348
352
354
357
325
487
503
365
359
365
373
383
398
418
435
448
441
384
342
337
337
338
341
342
360
352
352
354
356
358
258
627
434
352
356
361
368
381
399
423
433
440
408
352
331
329
328
329
331
345
346
340
341
343
345
298
507
475
345
342
345
353
364
381
402
419
429
422
367
326
317
317
318
322
321
341
333
332
334
333
338
252
548
425
339
342
345
352
369
388
404
419
428
397
343
318
314
319
323
330
345
336
333
335
341
343
265
550
434
348
351
358
368
381
400
419
431
438
401
343
323
319
322
327
333
346
334
332
336
341
343
259
571
415
340
340
346
354
368
389
408
421
426
387
332
313
312
314
317
319
331
335
330
333
335
337
286
527
472
340
337
338
343
358
376
397
418
426
418
359
321
319
316
321
321
335
338
327
328
330
335
333
300
465
383
329
334
336
352
372
392
412
425
424
381
329
318
315
320
327
335
350
337
337
339
343
346
259
606
440
346
350
354
364
377
397
423
433
439
399
342
322
319
320
326
327
343
330
326
328
333
334
242
619
438
326
328
332
340
353
375
396
412
421
387
328
303
304
304
308
310
330
326
322
325
329
332
282
516
470
333
329
335
343
355
372
393
415
427
413
352
316
313
309
314
321
325
342
334
334
338
342
346
261
596
449
344
355
360
367
380
399
424
439
449
417
355
333
328
327
335
333
357
353
344
346
348
350
336
412
468
373
349
350
356
370
384
403
423
432
428
367
325
311
310
313
316
319
337
325
319
321
323
325
230
618
426
319
322
326
336
345
364
388
403
414
384
324
301
300
300
305
311
316
331
320
318
319
322
326
235
609
436
329
331
337
344
357
374
399
415
425
392
335
310
309
311
316
317
316
337
333
330
333
336
339
309
459
481
347
339
344
349
359
375
396
416
428
422
366
326
315
315
320
321
324
327
345
339
338
342
345
349
281
587
480
346
351
358
363
377
392
416
435
445
427
371
333
325
325
329
330
334
349
347
337
340
341
342
287
563
461
341
339
341
350
361
377
398
419
427
411
349
311
306
304
308
312
312
333
328
322
325
330
331
257
586
460
329
332
336
344
356
376
400
419
428
408
345
316
310
311
313
319
320
332
338
329
331
332
334
323
364
494
360
335
336
345
356
368
391
413
428
423
371
324
313
313
315
320
325
325
345
339
335
338
341
343
272
581
472
343
342
350
356
370
386
409
428
437
419
356
323
317
320
324
327
330
329
348
339
338
343
346
349
264
602
455
350
352
359
365
376
395
418
436
442
420
355
327
325
325
333
337
343
347
358
344
345
346
350
345
305
508
398
343
345
350
359
372
393
414
424
426
382
328
309
308
311
315
320
319
329
338
325
325
328
328
327
298
504
372
329
330
339
347
363
383
407
419
422
378
321
305
304
307
310
316
318
318
335
325
324
330
331
333
242
607
441
329
333
338
347
360
378
401
416
427
401
341
313
309
310
314
316
318
319
335
338
330
329
333
337
315
414
485
343
334
334
337
345
361
386
403
421
417
362
309
299
300
300
302
306
312
326
316
316
320
324
324
250
538
414
330
337
341
353
368
392
416
433
438
398
337
319
314
319
327
330
336
348
335
336
338
344
338
317
513
382
338
343
350
359
374
396
418
430
433
382
329
315
313
314
316
320
326
329
318
320
323
324
291
451
467
329
319
321
327
337
354
375
397
406
399
340
295
288
290
290
294
298
305
312
303
308
313
315
296
400
469
331
319
321
327
336
351
376
398
408
406
352
305
296
296
296
300
302
305
325
317
318
322
329
328
254
583
448
327
329
331
343
353
372
398
420
432
417
355
322
315
317
320
327
334
349
334
334
336
338
341
254
585
437
338
343
349
356
370
391
412
426
432
399
341
315
312
317
323
326
334
343
332
335
336
341
342
268
560
402
342
343
349
359
372
394
417
430
435
390
333
316
315
316
318
321
333
339
329
330
330
334
332
290
525
379
334
336
342
353
366
385
408
425
427
384
329
314
316
318
321
323
332
346
336
339
342
346
348
255
604
444
346
350
357
368
380
401
426
442
448
420
361
333
327
327
332
335
342
355
340
341
341
342
345
251
610
442
342
343
350
357
370
388
410
428
435
403
342
317
315
320
322
326
327
334
345
334
335
338
340
337
309
526
378
340
340
345
353
368
388
412
426
426
383
326
311
310
310
312
313
313
330
332
325
327
327
328
313
403
463
349
327
332
341
348
365
385
410
418
421
371
319
301
299
300
301
305
307
326
312
309
312
311
316
227
581
411
310
313
314
322
334
354
376
390
393
370
307
282
273
275
279
282
289
305
292
290
293
295
299
218
519
374
300
303
311
325
340
362
386
401
406
365
309
292
293
295
298
305
314
323
315
318
322
327
323
315
510
365
330
334
341
352
370
393
418
434
436
384
332
318
320
324
327
329
340
350
343
344
347
350
349
299
547
400
348
352
359
371
384
411
431
450
450
406
352
333
334
334
340
338
358
359
349
351
354
358
342
398
465
375
348
350
357
365
379
398
417
425
419
366
313
293
287
288
288
295
305
283
280
276
277
277
182
532
357
261
260
266
274
287
306
327
344
348
314
253
230
228
230
237
243
258
254
249
253
260
266
231
438
410
284
279
283
295
309
330
356
383
398
392
336
297
293
297
301
309
317
336
332
331
336
341
346
307
516
493
353
349
356
366
376
392
417
437
450
441
386
343
337
340
340
342
344
366
361
355
359
362
364
352
401
532
386
363
365
370
382
399
421
442
456
454
401
352
341
341
344
347
349
359
369
359
362
365
366
367
286
591
433
365
369
374
384
397
416
443
454
463
425
368
345
344
347
346
349
369
370
356
360
361
364
348
473
464
383
368
371
379
388
405
423
438
450
443
386
339
322
320
325
328
338
343
326
327
328
327
328
262
525
392
328
329
335
346
361
384
406
420
425
381
326
306
305
305
311
315
331
323
322
326
328
333
263
601
456
331
333
340
349
360
378
400
418
429
412
349
314
311
311
316
319
319
339
334
332
334
337
340
277
567
474
339
340
345
354
366
383
406
425
436
421
361
321
317
316
321
324
325
345
342
338
339
341
345
304
501
486
350
345
349
354
367
383
405
425
436
425
366
324
314
316
316
323
324
346
341
337
340
341
341
289
546
474
345
343
348
356
366
385
408
426
436
421
362
323
316
317
318
322
329
348
337
331
333
333
335
246
593
433
328
329
335
341
357
376
401
418
425
393
332
306
301
302
305
310
316
330
317
316
317
321
321
227
590
412
317
315
322
329
343
362
386
399
405
369
309
286
282
282
285
288
289
304
308
300
303
307
311
307
288
479
350
312
314
321
329
345
366
389
402
402
354
302
288
284
283
288
292
292
308
307
303
306
308
312
291
392
455
326
311
315
323
334
349
371
395
407
406
354
306
299
299
300
304
312
315
336
328
331
331
342
344
271
604
461
346
349
353
365
377
395
416
434
447
425
366
329
320
321
325
329
331
348
345
335
338
340
344
302
518
472
352
346
352
360
371
389
411
430
443
434
377
335
326
326
330
335
337
348
357
346
345
350
353
350
330
532
395
356
359
365
371
390
411
434
448
448
402
345
332
332
336
338
342
342
361
358
353
354
358
356
299
571
488
354
354
358
365
376
392
415
435
446
432
371
328
317
316
318
319
323
341
332
326
330
332
335
286
546
448
337
336
340
348
358
379
400
419
428
414
353
314
305
304
309
313
314
332
320
317
320
322
324
239
