442
454
445
404
356
338
342
341
353
350
360
352
353
352
353
356
267
608
433
351
348
349
361
368
400
417
432
428
389
334
320
317
322
328
334
336
331
331
336
343
332
273
518
394
337
344
354
366
384
411
429
441
433
392
343
339
338
340
349
367
354
347
353
356
364
313
542
484
354
356
362
375
381
406
426
437
443
423
370
340
337
345
346
348
351
364
358
361
357
360
362
291
600
475
360
356
358
366
379
399
418
435
440
403
353
333
329
328
332
335
331
346
347
339
343
345
348
326
405
473
365
345
349
361
363
381
408
425
432
424
371
333
324
329
333
342
353
359
354
355
357
364
361
285
606
474
358
357
364
372
389
410
428
442
444
413
357
335
333
338
341
343
350
356
351
352
352
351
355
262
604
437
351
357
355
362
380
398
416
427
429
387
337
323
319
317
327
323
332
336
333
338
333
339
344
255
576
418
342
348
348
362
376
405
420
431
432
393
346
335
333
334
343
349
357
361
359
357
364
363
360
307
544
408
362
359
371
378
393
413
435
445
436
392
348
338
337
343
343
347
354
357
343
350
348
350
347
261
587
421
338
348
354
360
373
396
421
426
431
385
335
321
320
327
327
332
349
337
334
339
343
347
283
568
469
347
350
354
364
380
404
428
440
444
414
364
336
336
338
344
346
350
355
350
356
353
357
361
282
567
415
355
357
358
369
389
410
429
441
430
388
346
334
336
340
340
343
347
354
351
349
348
357
352
275
598
450
344
342
343
356
373
390
413
427
430
392
342
320
316
319
318
322
330
344
342
336
337
338
348
295
537
468
345
346
358
361
380
400
423
446
444
416
367
341
333
337
343
348
363
350
350
348
355
357
276
601
473
353
351
361
372
386
407
428
436
437
399
349
331
327
331
330
334
344
334
338
344
338
344
281
521
395
337
347
350
360
380
406
420
431
417
368
329
317
325
325
335
352
340
337
343
347
350
286
595
471
352
358
360
370
384
403
430
445
442
404
359
333
333
339
343
356
346
347
351
348
353
276
608
466
350
353
356
367
387
401
425
438
439
392
343
333
327
331
325
332
342
342
338
337
342
346
261
570
415
338
343
345
358
378
399
420
431
425
381
336
320
320
329
331
333
350
349
345
349
351
351
308
543
484
356
359
363
371
382
405
426
442
438
415
364
342
337
338
345
353
358
350
356
355
356
357
267
612
457
351
356
361
375
385
403
431
440
435
391
345
330
325
331
325
331
340
336
336
340
343
345
300
518
467
345
345
352
356
373
393
406
427
430
404
351
322
316
320
328
339
347
343
343
341
350
356
265
617
455
358
358
368
375
393
417
440
445
446
402
350
342
342
349
350
360
356
354
355
360
360
277
611
466
359
359
363
373
384
405
436
441
446
395
352
334
328
331
336
333
348
340
337
340
343
347
254
580
436
337
342
351
358
377
401
417
428
421
385
333
316
317
316
325
339
345
334
343
343
350
341
390
488
383
358
362
373
382
407
427
439
457
427
377
346
341
344
342
351
362
353
353
357
360
359
286
573
421
355
360
366
380
396
418
441
446
432
381
338
329
333
334
331
331
346
341
332
343
340
345
257
590
441
337
341
350
355
375
394
420
428
427
381
338
317
320
324
330
347
336
346
346
347
358
301
582
481
365
361
370
380
392
411
440
451
453
413
365
344
340
345
346
361
352
353
354
356
359
288
581
471
351
348
357
364
379
403
420
432
437
402
351
335
327
331
334
331
346
335
334
337
337
339
255
573
426
334
337
350
361
373
399
416
423
423
382
334
317
318
323
325
336
344
339
339
344
351
350
280
541
412
355
363
364
378
394
418
439
445
434
387
343
337
336
341
341
346
358
355
349
355
358
365
299
561
479
360
351
359
366
376
398
421
435
438
410
357
334
335
335
336
337
339
344
353
354
350
355
353
357
345
336
501
379
346
345
354
369
380
403
421
434
422
375
334
327
322
325
330
335
332
336
337
352
345
342
347
350
350
313
501
397
352
355
366
374
400
421
441
454
443
397
355
343
339
342
348
352
357
366
358
357
356
361
357
284
596
472
351
352
361
371
383
405
423
443
442
407
355
334
333
333
338
339
343
346
354
349
342
344
347
343
302
510
385
345
349
352
365
382
406
423
429
418
376
329
322
312
323
325
332
341
341
336
341
343
351
342
413
480
373
353
356
364
379
399
422
442
446
429
375
340
336
334
338
341
347
347
357
350
352
354
354
352
307
536
395
354
353
360
370
384
411
427
440
427
380
340
330
334
331
334
329
336
334
339
347
339
342
344
345
300
515
460
343
339
346
357
365
390
407
422
429
406
352
317
316
321
322
332
335
346
342
342
341
346
352
266
613
452
353
356
363
371
388
410
431
442
437
394
352
332
330
340
341
351
355
351
348
355
353
352
306
532
392
352
357
359
370
391
412
433
442
435
384
340
335
332
337
336
342
345
347
341
339
346
348
313
475
470
352
348
354
357
370
392
414
430
432
409
363
325
323
325
329
331
345
346
339
341
350
343
330
451
469
364
349
356
369
382
406
424
442
444
420
370
340
337
338
343
348
363
357
350
353
355
354
281
596
471
350
356
358
369
380
401
419
433
435
403
351
331
331
334
332
335
343
352
349
347
347
347
352
270
585
454
342
341
342
355
365
385
407
429
423
385
339
318
317
316
321
322
329
335
335
334
333
343
339
324
406
457
355
338
344
352
362
389
410
425
434
414
368
335
328
332
339
344
347
356
350
350
350
354
351
273
575
419
351
350
362
367
385
403
425
435
426
382
339
330
329
331
336
338
349
349
340
342
341
347
327
387
472
361
338
342
349
365
381
400
421
427
410
363
326
322
320
322
330
331
344
336
336
342
341
342
260
589
439
345
351
361
370
388
410
435
443
441
393
350
335
333
338
341
349
353
349
350
350
354
351
302
526
396
348
352
361
370
384
412
429
435
423
376
335
326
326
330
328
331
338
343
336
334
341
340
340
260
555
411
338
345
352
360
375
398
419
431
420
382
335
328
321
324
331
336
352
343
344
344
352
350
286
596
469
358
354
364
371
384
406
425
443
435
403
351
333
329
337
341
342
342
350
355
347
353
350
352
325
455
480
360
352
354
361
371
391
417
430
433
417
367
337
330
328
336
333
333
339
342
339
342
339
346
347
265
557
409
343
345
348
364
369
381
405
412
406
364
321
310
309
309
319
330
338
329
335
341
343
347
263
615
455
349
351
358
369
382
408
428
440
438
392
347
331
333
331
336
342
344
346
352
346
353
351
358
339
404
498
369
351
358
367
374
394
416
434
439
422
374
342
333
335
340
343
345
347
355
357
355
360
361
363
340
445
496
375
359
362
370
381
392
419
429
438
418
367
334
323
320
324
325
330
328
341
346
340
332
341
345
262
608
452
339
343
346
359
380
403
429
439
440
403
360
334
330
336
342
356
360
349
351
354
351
353
290
550
408
357
356
365
381
397
414
432
445
423
375
342
335
332
334
346
355
353
351
353
352
354
329
442
488
361
348
357
362
378
397
420
442
439
421
366
334
334
332
332
331
338
343
350
339
346
348
352
299
525
470
347
340
350
361
371
391
413
429
434
408
354
327
326
325
325
327
342
342
338
338
342
350
350
313
518
404
357
359
372
381
401
415
440
447
432
381
347
330
335
332
338
350
351
347
349
349
355
348
287
551
405
345
351
356
368
390
411
423
435
424
379
337
327
330
335
334
339
347
354
342
348
352
355
329
431
491
366
343
352
359
363
390
406
418
429
405
356
323
315
316
316
322
322
333
333
331
329
335
336
335
269
523
388
334
333
346
360
378
402
419
426
418
375
334
326
327
330
337
340
353
350
352
343
354
361
301
562
482
358
359
361
374
385
405
426
439
438
414
359
339
339
339
342
341
354
355
359
358
356
355
360
315
516
491
355
353
361
360
376
395
415
428
430
409
357
330
324
325
328
335
336
342
335
341
335
339
340
282
522
395
345
341
352
365
381
399
418
424
419
370
330
324
324
334
337
348
351
345
351
356
355
353
293
544
408
353
359
364
378
390
416
434
441
424
379
340
331
331
337
341
349
354
349
351
350
353
351
282
563
416
352
357
363
370
385
412
434
443
435
387
346
331
333
332
338
330
340
351
338
342
345
347
348
280
558
412
340
347
358
361
388
404
425
428
427
384
338
326
322
323
332
352
336
341
344
348
351
338
387
481
376
354
358
365
382
394
418
432
443
419
370
340
334
338
341
344
357
350
347
349
352
352
302
541
480
351
352
355
366
373
397
417
431
435
408
354
342
332
335
334
337
336
339
341
337
338
337
337
304
524
392
354
359
362
374
391
412
426
427
416
367
329
319
315
318
324
328
341
329
328
335
333
330
244
589
418
331
333
348
354
378
399
419
424
418
378
332
326
319
328
332
349
341
337
340
338
344
329
410
480
361
347
345
353
367
386
411
428
430
414
355
319
319
320
322
326
336
336
331
330
336
338
331
337
489
374
343
347
354
363
382
406
426
424
411
366
326
320
323
327
334
340
345
335
343
340
342
329
405
475
362
343
353
360
371
392
417
424
433
410
360
330
323
330
333
344
334
331
335
339
344
273
578
466
348
353
354
357
379
390
411
422
418
376
332
319
317
321
336
330
322
331
320
327
298
467
459
344
333
335
347
363
382
401
409
421
386
337
310
317
318
337
335
328
332
334
339
335
370
501
379
344
352
361
375
390
413
426
431
411
356
332
332
331
347
344
341
342
345
349
334
385
512
369
348
353
362
370
389
413
431
434
409
361
339
337
333
336
342
340
332
336
343
335
281
527
465
338
342
341
352
369
382
408
420
425
392
344
316
318
323
332
336
326
329
332
338
337
281
527
401
344
350
359
370
386
415
429
433
416
360
333
326
327
340
336
337
334
341
339
319
431
487
358
347
351
363
374
395
419
430
438
407
355
337
339
342
347
342
340
337
338
341
332
330
486
368
336
338
345
362
373
401
412
418
394
342
311
308
312
320
333
331
327
334
333
340
264
537
406
344
339
351
366
383
402
415
421
404
357
326
318
324
330
340
335
337
348
341
354
258
582
421
352
353
363
376
386
412
428
438
422
374
347
337
339
338
344
352
362
351
347
348
355
352
261
600
445
354
354
367
370
385
408
421
430
421
381
337
325
322
325
326
328
334
343
337
340
342
345
343
267
549
406
338
340
347
358
372
397
413
423
416
370
330
316
322
330
335
347
352
343
348
348
354
314
535
487
361
360
364
374
385
411
433
447
442
410
358
337
335
336
348
346
355
346
345
347
352
343
320
519
386
347
349
356
369
386
412
424
427
406
362
326
325
326
325
323
326
339
338
335
339
339
348
259
559
407
341
342
347
354
377
396
410
423
410
370
333
318
322
322
323
337
342
334
334
335
348
303
509
468
360
358
361
369
386
407
427
444
443
406
353
334
335
333
340
352
352
346
349
354
358
280
602
469
349
352
356
363
382
405
428
438
433
392
349
334
334
335
335
333
345
333
336
336
335
328
352
473
358
332
335
346
357
371
397
413
414
392
339
315
309
304
315
319
335
327
326
328
330
330
310
491
385
345
347
357
374
393
419
432
440
419
371
339
336
337
341
354
352
352
349
355
354
293
584
484
357
354
364
373
390
410
430
446
450
404
358
339
338
340
333
347
337
335
333
337
335
248
565
419
338
338
343
352
369
397
410
415
403
357
322
305
311
320
326
336
329
335
340
338
337
363
477
380
354
359
370
381
402
424
439
443
416
365
348
338
342
344
355
357
346
349
350
353
330
451
482
364
353
357
366
377
397
418
428
434
405
357
335
332
333
331
333
338
347
339
341
338
337
306
455
460
342
332
336
349
364
381
402
414
420
397
345
320
311
313
315
323
334
322
326
327
332
335
247
589
433
338
347
354
368
388
412
430
444
431
387
346
334
337
340
347
353
359
353
356
359
361
355
334
527
390
356
359
366
378
394
418
436
442
421
372
337
335
337
338
340
354
353
341
345
348
346
256
582
427
333
335
345
352
367
387
414
419
406
363
319
309
305
306
311
321
326
318
323
321
327
307
396
443
347
330
340
345
367
386
414
428
436
408
361
332
331
334
338
352
349
343
349
351
354
311
519
477
354
348
354
361
377
397
419
433
436
402
356
333
328
331
335
333
334
349
348
351
346
352
350
262
608
431
342
341
347
355
373
392
413
424
418
366
327
312
309
309
312
321
321
320
324
332
338
280
542
458
334
331
339
348
367
386
408
421
422
387
333
315
316
320
327
346
339
336
343
341
350
262
617
453
355
353
364
374
391
415
436
446
432
381
344
334
331
337
352
346
342
345
332
340
282
560
468
341
342
349
357
376
400
422
434
431
389
345
330
329
335
336
343
335
337
339
340
337
330
508
370
340
338
348
355
377
404
416
425
400
347
317
319
317
326
331
325
329
332
338
318
385
489
362
345
348
351
368
390
412
427
425
401
342
320
324
315
326
320
312
315
317
325
244
557
431
321
328
335
337
357
377
401
405
401
354
316
308
307
311
324
320
320
324
334
332
256
562
426
340
345
352
364
385
407
426
424
414
365
332
324
325
339
344
337
337
338
345
338
347
495
375
349
351
360
369
390
411
428
429
404
355
335
331
333
336
348
346
347
345
347
355
270
559
422
355
356
363
376
392
414
431
438
418
372
338
332
326
327
327
332
326
332
329
332
330
312
472
371
334
339
344
361
376
402
415
419
397
347
322
313
317
323
330
342
336
339
343
349
347
267
569
431
350
355
361
367
393
412
429
432
420
373
338
333
331
339
344
349
346
342
345
345
349
279
534
398
347
348
356
365
383
405
421
429
412
367
335
323
323
322
323
323
338
331
323
326
326
328
271
487
375
323
328
333
347
362
390
401
407
397
349
311
296
296
301
306
311
327
319
322
323
333
317
413
466
370
359
364
369
385
410
431
448
449
421
368
347
345
344
351
367
359
356
357
360
359
298
584
488
361
358
368
371
390
411
436
445
432
389
354
335
333
336
335
339
347
344
341
337
337
341
265
568
449
329
328
333
341
361
383
408
414
415
368
323
306
304
308
316
321
337
334
331
333
336
344
258
619
456
343
346
352
360
381
408
422
436
425
378
338
326
330
332
335
340
351
343
344
345
349
320
461
486
361
349
353
365
376
395
421
434
437
403
355
334
336
337
344
346
353
356
346
347
343
349
275
560
467
335
336
340
345
363
385
409
414
412
370
321
298
303
305
307
310
322
326
317
319
325
330
249
592
442
326
332
339
353
374
403
425
432
430
392
349
337
335
342
351
368
358
362
362
366
368
271
643
468
364
365
373
381
403
423
446
450
440
386
348
337
336
340
341
350
352
345
350
351
355
288
567
480
353
351
361
366
385
406
430
440
437
394
346
329
322
326
319
327
330
326
321
324
334
264
544
454
329
332
341
345
363
386
408
419
415
370
321
307
309
313
321
333
344
338
335
342
346
326
434
485
370
351
360
362
377
401
424
435
438
407
355
328
329
333
333
348
345
339
343
343
349
272
602
467
346
346
352
362
381
394
416
425
422
377
332
318
319
321
326
325
333
337
331
333
334
342
273
565
468
337
340
341
351
364
381
401
414
411
368
323
306
304
310
312
314
324
313
314
322
320
326
278
498
371
326
329
340
353
370
389
411
420
397
348
320
317
324
331
337
354
343
349
350
356
340
423
490
374
357
364
371
384
406
424
438
443
410
361
342
340
340
343
350
354
343
349
350
351
349
303
534
390
348
353
363
373
400
410
433
437
409
357
324
320
326
324
323
333
329
330
325
331
336
239
581
419
327
333
330
350
365
388
408
411
399
350
311
303
305
313
320
342
340
344
343
347
352
295
587
480
356
360
368
372
388
410
431
444
441
404
353
344
338
342
345
352
357
351
355
355
356
325
466
493
357
349
347
360
374
396
420
433
429
399
342
323
322
320
317
310
326
328
320
328
324
327
276
526
457
325
330
333
344
359
381
400
416
416
379
329
320
316
320
328
340
340
343
343
348
354
313
519
481
360
355
360
368
385
406
429
439
438
399
355
332
330
332
337
338
343
350
341
339
347
351
312
477
484
349
345
345
352
367
390
413
429
440
396
353
323
325
322
325
319
327
330
323
321
335
327
310
410
460
336
324
325
335
347
372
395
405
409
377
319
295
303
306
314
322
334
335
330
330
337
343
262
619
460
341
351
358
368
387
409
428
436
426
385
341
328
325
328
343
345
339
342
344
346
328
419
496
355
341
346
352
366
389
408
418
432
395
345
325
318
326
327
325
336
333
324
322
323
326
243
541
393
318
321
329
339
360
385
404
408
394
346
312
296
306
315
324
333
320
329
334
344
333
360
490
379
351
353
360
378
397
419
442
441
408
361
336
336
336
346
355
356
346
350
346
354
284
580
480
351
348
354
362
380
404
423
438
433
395
351
340
335
338
344
343
350
344
345
343
347
314
426
473
344
332
338
347
354
378
401
410
408
374
326
300
303
304
310
316
327
315
319
322
327
314
325
477
363
324
333
344
357
383
406
422
427
407
357
327
325
331
332
339
345
340
336
339
344
322
432
487
354
340
341
350
367
387
410
426
423
388
342
328
324
323
327
334
338
331
326
335
336
310
436
473
340
335
336
345
356
379
404
412
418
383
335
312
317
306
322
337
332
329
329
335
340
273
587
468
349
346
357
371
386
411
429
437
437
394
348
338
333
342
343
360
348
345
348
346
355
261
609
455
343
346
352
358
373
394
420
428
421
376
331
324
315
319
321
324
336
319
325
326
326
327
249
534
394
324
329
338
351
365
386
408
415
396
350
315
303
307
310
315
331
324
318
327
329
330
241
591
430
335
338
338
350
368
393
407
415
399
349
316
309
312
320
322
338
330
328
332
335
344
252
590
418
343
345
352
365
383
407
432
438
423
373
339
330
329
331
333
340
340
340
337
340
347
288
551
470
343
343
344
351
368
393
412
423
415
379
329
319
317
321
325
331
345
332
336
343
346
353
263
579
421
350
351
360
369
393
416
427
433
418
369
341
331
337
341
344
348
357
348
347
350
352
326
433
499
362
352
352
363
375
396
421
434
436
410
354
332
326
329
328
327
329
343
329
335
332
329
334
305
486
366
325
332
337
353
369
391
407
418
392
347
315
309
316
314
331
342
336
332
333
339
344
264
556
414
349
352
363
377
398
418
433
441
419
363
339
333
329
335
346
348
343
345
347
350
321
464
485
356
348
354
368
379
400
421
440
437
398
347
331
329
326
325
320
335
329
326
326
331
333
242
580
421
326
328
331
346
364
391
410
414
399
347
308
297
298
308
320
327
323
323
329
335
326
362
479
372
346
356
363
377
398
426
437
437
407
363
334
336
334
340
349
357
348
348
350
355
353
289
556
408
351
355
363
374
391
417
431
436
417
359
331
327
327
334
337
338
342
343
338
342
343
343
324
382
479
354
330
332
344
356
380
402
415
423
398
345
313
309
317
318
319
327
339
333
328
334
338
336
253
607
439
332
338
344
361
377
400
417
428
418
370
331
316
319
322
329
330
345
343
340
340
343
345
309
482
479
351
346
351
363
374
398
422
437
440
405
355
338
334
329
335
338
342
355
350
348
351
353
356
267
598
438
353
348
354
360
377
397
422
427
411
361
320
309
305
300
305
305
307
315
323
314
316
324
323
301
432
445
338
323
332
345
353
381
406
420
425
394
344
324
320
326
333
342
349
361
355
357
359
361
362
273
634
459
359
363
371
380
395
424
438
449
434
385
347
333
337
338
339
341
342
349
355
345
348
349
356
333
387
498
364
340
342
344
359
374
405
413
418
391
339
310
305
306
302
313
310
317
329
321
324
324
328
309
387
444
352
330
333
346
354
381
410
422
428
399
352
326
325
329
335
337
342
350
342
345
342
345
345
334
498
377
346
349
355
367
384
413
425
433
407
359
330
324
328
332
333
338
344
335
337
341
344
337
341
495
369
346
345
354
367
384
409
423
434
407
352
331
329
328
326
329
346
337
337
341
341
338
289
515
457
340
342
346
352
367
387
414
426
425
390
343
326
324
333
332
337
350
340
343
348
351
340
346
473
381
349
356
361
376
396
418
433
436
409
363
332
330
330
331
337
345
338
335
337
339
337
300
506
382
337
340
345
357
377
400
415
425
402
355
330
326
327
327
332
326
330
332
335
335
295
500
379
342
339
348
353
370
401
410
414
389
342
313
311
310
313
315
311
312
317
315
310
299
435
365
320
323
332
343
363
386
397
395
377
328
303
296
302
316
323
320
318
322
320
328
258
521
412
339
344
357
367
388
413
428
431
417
370
342
338
340
349
353
346
344
349
350
341
374
487
378
350
350
360
371
392
414
428
429
400
349
327
323
327
335
339
332
336
340
340
329
365
479
365
340
348
354
362
387
406
419
420
391
347
328
326
329
326
339
337
338
338
344
342
315
453
471
345
334
336
342
351
372
396
400
406
372
322
306
306
304
307
322
321
320
323
324
325
284
501
441
326
322
323
336
351
378
401
410
407
376
333
317
315
322
338
341
335
331
341
339
331
361
472
373
342
350
360
373
393
417
428
429
397
352
333
332
332
337
352
345
339
341
345
345
266
591
449
342
343
352
357
376
402
419
423
413
366
329
325
326
328
329
338
344
340
340
340
344
322
406
476
361
340
346
351
367
386
410
424
425
394
349
327
327
327
332
332
342
340
338
338
344
346
287
545
465
337
341
343
354
367
384
412
412
411
372
327
312
315
310
314
313
326
333
324
323
326
324
309
382
451
352
333
338
346
363
385
410
420
427
403
359
332
332
330
338
342
355
356
355
351
355
356
306
542
480
356
354
361
367
377
403
421
435
436
387
343
333
324
328
330
330
341
333
330
333
328
335
244
573
427
328
335
340
354
371
390
410
416
399
356
319
313
314
319
324
328
342
343
341
343
351
357
277
598
469
353
356
359
373
387
412
434
443
438
391
350
338
336
343
344
349
360
358
352
354
349
352
273
567
458
339
343
342
353
370
388
404
421
414
369
326
314
313
314
311
312
314
325
315
319
320
327
266
522
455
333
334
333
345
362
387
414
422
420
379
337
315
317
317
324
332
340
333
332
335
340
342
264
546
425
346
353
355
371
388
414
428
440
419
373
341
333
335
338
344
353
352
348
344
349
350
298
529
466
345
348
350
357
375
398
422
433
422
390
342
331
327
327
329
331
335
346
346
340
342
341
343
281
534
455
344
338
344
354
370
388
409
422
422
384
338
328
324
324
324
328
327
334
339
335
337
337
337
322
374
465
357
339
342
352
357
377
397
414
415
392
349
320
313
313
316
317
319
330
330
327
327
328
336
262
547
444
330
330
335
346
365
385
407
417
407
367
325
311
307
315
319
324
329
341
331
336
343
346
348
281
519
418
352
354
364
376
394
421
442
445
426
375
338
338
334
336
340
340
346
353
348
346
351
351
347
335
506
376
344
344
355
364
383
403
422
427
402
357
323
319
319
322
323
323
331
332
328
329
330
333
297
456
439
340
331
333
348
364
386
411
424
426
392
343
326
324
327
336
342
349
363
352
353
355
356
356
281
559
411
353
349
358
366
385
410
431
436
421
364
334
333
330
330
331
332
336
340
329
335
339
340
311
435
450
333
324
327
337
344
370
394
412
411
374
326
296
291
291
301
307
314
322
315
320
322
329
328
323
458
378
342
345
355
368
389
416
431
434
410
357
332
331
326
332
335
338
349
344
340
343
346
347
257
600
442
346
340
349
354
368
389
412
422
408
364
319
306
310
303
307
313
317
327
320
319
322
320
310
361
436
358
330
329
340
352
374
403
416
422
395
346
325
321
325
333
339
343
358
355
348
352
356
357
265
614
443
351
351
356
369
382
403
429
436
423
372
333
328
327
331
331
336
352
341
345
341
348
345
264
573
444
329
329
331
340
353
377
400
409
401
365
312
304
304
304
304
312
319
323
316
321
323
325
266
548
442
330
334
342
352
371
393
421
430
429
385
340
328
325
330
338
343
355
348
343
345
347
351
259
607
443
351
350
350
365
382
400
423
426
419
371
328
321
324
326
329
338
350
340
344
343
349
343
358
486
375
344
348
358
367
389
409
423
431
405
354
331
325
325
327
331
338
333
333
336
335
334
285
507
385
340
341
352
363
379
405
421
429
408
363
330
329
330
325
333
330
323
327
324
327
270
518
445
327
324
325
336
352
377
397
405
405
359
318
306
299
302
314
322
314
313
314
314
318
242
511
398
325
330
337
351
371
396
416
418
408
358
329
323
322
332
348
352
344
350
351
353
319
476
470
361
353
359
365
377
401
421
437
439
400
352
339
337
338
340
354
350
350
347
349
352
307
507
472
351
346
352
362
380
402
423
431
424
384
342
322
321
320
313
315
324
319
323
323
327
322
275
465
366
319
314
328
339
360
381
400
408
387
338
314
309
313
319
323
332
336
333
339
339
346
317
455
466
357
347
349
358
372
393
420
432
430
397
348
335
333
333
341
337
345
343
348
349
355
349
345
306
511
393
347
345
356
369
386
409
421
431
409
356
327
317
314
317
326
319
327
332
326
336
325
334
309
411
432
350
327
337
346
357
378
407
417
425
393
350
328
326
330
333
336
351
346
347
342
347
344
296
521
469
348
344
356
355
374
389
419
435
435
393
342
329
317
319
320
320
325
331
326
323
327
326
331
251
509
400
325
325
336
348
367
389
411
415
400
350
320
314
312
319
325
334
348
341
342
345
348
351
269
558
427
350
349
356
367
388
415
430
439
421
368
335
326
327
334
335
347
344
341
337
340
342
301
486
458
345
343
343
351
370
386
407
420
411
374
337
314
312
307
310
310
316
321
317
318
318
321
259
529
429
321
315
320
330
347
368
390
407
397
357
307
297
298
305
316
329
344
334
335
339
337
332
347
472
372
342
344
356
368
391
414
426
436
399
351
326
328
323
332
339
348
336
340
341
342
345
296
512
390
345
351
360
372
394
420
432
439
408
353
331
328
323
326
324
337
334
328
330
327
334
298
450
441
338
326
332
341
354
371
392
413
412
377
323
306
308
317
323
329
348
342
339
342
341
347
279
577
463
343
345
351
362
378
402
427
436
429
387
341
333
335
333
337
342
351
351
345
347
345
345
295
513
460
340
329
340
349
361
377
404
421
411
373
320
311
306
307
306
315
319
331
316
323
326
331
319
360
446
363
332
341
356
369
389
413
425
430
398
349
330
323
326
331
333
342
352
344
344
347
349
334
408
487
372
354
357
362
375
394
426
433
435
403
358
335
334
336
340
339
343
349
356
343
343
344
348
269
573
446
335
334
338
348
362
383
412
416
408
366
323
306
308
310
312
314
325
330
320
323
328
326
317
411
443
352
333
343
351
367
386
414
427
431
399
349
329
323
322
328
334
338
346
336
339
335
341
324
408
467
355
337
337
346
358
378
407
419
422
387
340
319
313
311
315
318
318
331
333
333
330
335
339
267
554
447
333
335
338
347
365
388
416
433
421
383
334
320
319
316
315
321
320
329
324
324
319
328
315
364
437
349
324
327
339
346
378
399
413
416
384
342
314
311
310
314
313
329
329
322
329
330
335
305
481
452
353
350
354
359
372
394
422
430
433
401
347
333
332
331
336
340
356
340
340
340
340
349
262
582
428
344
346
353
363
374
398
417
427
403
360
323
323
315
322
322
326
330
336
328
330
331
333
299
488
434
333
325
335
340
360
385
408
421
421
389
340
324
327
327
333
341
348
353
348
343
350
355
350
305
528
398
343
349
356
363
390
416
430
438
414
358
330
319
321
315
315
312
326
331
319
323
325
331
291
482
442
337
328
334
339
357
379
407
420
420
390
339
327
326
329
331
336
348
344
345
343
346
352
273
590
455
342
343
347
358
377
402
425
438
428
382
344
328
335
336
334
331
337
336
337
330
333
334
298
482
445
326
325
328
334
352
372
401
410
407
373
322
305
304
305
309
310
317
320
320
322
324
324
311
421
443
352
333
339
348
365
385
411
429
429
395
345
321
321
321
327
333
342
346
338
340
341
344
335
352
500
371
347
347
357
362
380
407
422
429
397
343
313
308
313
315
311
315
322
327
322
325
319
328
264
552
442
331
330
339
344
365
385
409
418
419
371
330
313
308
314
329
337
333
327
328
329
333
257
589
442
338
341
350
360
378
393
410
423
413
357
315
304
304
313
318
333
327
326
328
333
333
263
528
397
334
334
345
352
375
397
421
428
404
351
320
316
317
320
333
332
330
329
334
335
284
540
464
341
342
346
357
373
397
422
433
432
391
358
342
335
330
342
338
332
333
332
331
303
452
434
338
328
333
341
359
380
403
414
413
377
329
311
309
311
320
331
322
322
320
323
329
251
559
413
332
338
345
361
383
409
427
434
416
364
327
324
323
330
348
340
339
337
338
346
269
581
451
342
343
351
361
378
404
428
437
424
375
336
328
327
329
331
339
343
336
338
337
340
336
322
474
366
335
335
343
356
373
397
412
418
388
338
310
301
305
307
308
317
324
316
318
318
320
309
374
420
346
322
331
344
355
375
400
415
419
391
345
323
322
322
329
338
344
336
338
340
343
322
437
462
354
335
344
353
368
386
413
427
426
386
340
323
322
327
326
337
336
330
333
331
336
271
554
451
331
334
338
348
366
389
415
425
418
376
333
324
324
325
331
343
336
333
337
340
338
294
497
380
341
348
357
370
385
405
426
426
403
354
320
319
318
316
332
320
321
323
325
329
277
464
388
332
336
340
357
373
395
412
413
388
337
306
301
302
311
329
319
320
323
327
332
252
574
426
334
337
344
357
377
403
419
427
412
363
328
320
317
325
337
332
330
333
333
339
252
581
431
333
336
345
357
377
398
418
427
411
359
326
320
321
321
326
340
334
328
333
333
340
265
558
446
336
333
341
353
364
391
411
422
419
374
331
320
319
322
328
331
333
343
336
338
339
341
348
269
585
441
340
343
345
360
368
394
413
417
412
365
321
310
309
311
311
313
317
325
328
324
324
326
327
310
409
437
349
334
335
339
350
376
395
415
417
388
338
318
313
316
323
327
333
344
338
339
342
345
340
317
502
387
339
344
354
366
385
414
432
440
409
355
329
327
325
326
332
334
344
344
340
339
345
349
297
531
471
343
341
345
353
368
391
416
431
430
387
342
324
321
322
324
324
329
333
341
334
335
338
343
337
344
476
363
335
333
337
352
366
392
405
410
386
336
304
301
299
295
301
300
309
316
314
311
314
320
323
247
523
400
321
324
332
338
358
387
406
418
403
353
317
308
311
315
324
331
345
339
337
341
340
344
256
588
438
342
345
354
364
382
407
429
438
425
371
332
323
322
329
330
334
342
350
340
343
345
351
318
474
466
359
350
353
361
374
394
423
438
439
405
355
331
331
331
336
336
338
351
346
345
346
351
351
272
576
432
345
347
348
356
370
394
414
421
411
357
315
309
307
310
309
311
323
322
321
321
325
324
286
481
431
330
324
327
337
355
378
403
416
415
379
327
312
305
310
318
323
340
331
331
329
338
338
265
585
448
338
338
344
357
376
396
425
432
424
373
334
324
324
325
332
336
344
335
336
339
343
338
298
496
377
335
338
344
357
377
401
420
429
407
360
326
318
320
319
318
322
330
321
323
328
324
330
260
499
386
322
326
333
347
366
393
410
419
396
348
314
314
305
313
314
330
331
321
327
323
331
329
319
459
374
336
340
349
364
386
410
426
429
402
352
323
325
322
331
334
348
339
337
337
340
338
268
580
445
341
341
349
360
379
405
424
432
425
374
334
325
324
326
328
332
345
337
339
344
344
348
267
532
394
331
330
337
348
365
387
408
411
392
347
311
301
302
307
311
316
325
316
319
317
321
334
261
492
383
322
328
339
352
368
395
415
422
409
358
330
323
322
330
340
347
339
344
339
343
347
263
576
433
345
343
354
365
378
397
415
424
410
360
320
316
311
319
324
339
332
332
334
336
339
259
572
437
335
334
341
351
366
389
411
415
409
362
324
315
314
316
324
334
327
325
329
333
333
275
507
386
333
334
340
354
371
396
414
425
404
349
320
317
311
315
323
308
306
313
310
311
240
523
411
307
317
324
338
357
378
397
410
393
346
312
299
300
308
328
321
317
322
326
331
275
545
449
335
333
339
350
369
394
414
424
422
379
333
321
329
332
344
338
337
340
337
344
294
525
458
347
342
350
355
371
395
415
428
424
386
342
329
329
328
338
342
338
341
342
340
343
281
509
393
342
344
348
356
375
405
418
422
401
352
317
317
314
308
322
326
319
318
321
318
323
249
548
420
323
325
333
344
365
388
403
411
396
350
314
304
307
312
314
335
333
333
339
342
347
300
529
455
350
352
359
369
381
406
429
441
439
392
349
333
332
335
339
349
342
337
341
341
346
278
557
451
342
343
350
362
377
398
419
425
414
364
321
314
308
307
310
308
316
322
312
314
317
318
279
471
419
319
316
318
328
342
368
390
398
401
366
321
303
300
301
309
319
328
333
329
329
333
338
325
398
446
357
344
345
356
368
391
420
432
434
403
354
328
324
325
328
333
344
336
333
338
338
341
257
568
426
338
335
340
351
371
395
417
423
414
368
326
319
320
315
312
313
324
324
321
320
318
319
255
528
422
316
319
320
334
348
376
396
408
401
361
316
301
302
304
306
314
324
324
316
323
324
327
278
540
451
344
335
344
361
374
403
419
434
430
385
341
328
324
329
336
338
351
337
339
341
341
340
313
490
381
338
343
349
360
383
408
425
428
398
343
319
316
318
321
329
338
334
328
334
336
331
350
476
363
336
338
349
361
384
410
427
431
395
344
323
324
325
327
339
336
335
338
340
344
277
551
451
335
334
340
345
364
384
409
417
407
360
315
308
305
307
307
325
320
317
316
320
324
254
549
434
321
326
333
350
366
388
411
415
404
363
319
311
307
315
326
340
331
331
333
336
337
291
487
391
338
341
348
360
385
407
425
429
400
350
326
321
320
327
331
340
332
330
338
338
334
307
482
378
338
338
351
365
384
413
430
434
408
355
327
320
319
323
327
331
342
335
336
341
344
341
263
538
411
339
340
346
355
373
401
421
429
415
364
330
321
316
319
319
318
330
331
324
325
330
333
285
501
440
333
327
331
344
355
378
402
411
408
371
323
305
305
308
316
312
321
329
329
323
326
330
335
257
583
440
340
339
352
364
384
407
431
441
429
380
339
328
325
330
334
339
350
336
334
339
338
338
273
513
395
340
341
349
361
379
405
425
429
407
352
321
318
317
313
315
320
328
339
329
329
334
336
331
318
465
369
332
338
344
355
376
401
421
429
404
357
325
321
319
321
318
320
328
332
323
327
326
326
253
535
422
327
329
337
353
361
393
410
415
409
365
322
304
306
309
315
329
331
328
332
333
339
296
512
445
345
342
347
356
372
395
416
431
422
382
331
318
311
315
315
323
331
336
327
327
331
333
260
564
449
336
338
344
355
371
396
420
426
420
373
333
323
323
324
331
341
335
334
341
338
342
263
534
404
327
330
337
344
359
385
401
411
388
338
301
294
300
301
308
319
309
309
315
315
316
288
452
362
319
327
332
353
373
403
420
424
399
344
322
312
319
323
334
335
328
331
333
342
305
464
459
344
334
340
352
364
385
412
428
423
382
335
318
320
320
326
339
336
329
335
340
339
266
567
442
337
338
346
357
373
395
418
430
422
375
337
328
328
332
331
338
348
342
340
344
342
326
418
441
350
331
333
345
357
379
396
413
416
380
331
308
306
306
313
319
320
317
316
318
323
292
466
424
328
325
335
345
359
386
412
418
422
376
338
321
316
321
330
341
335
332
330
334
338
270
555
447
338
340
345
357
375
399
419
430
418
372
334
322
319
322
326
334
342
335
335
334
335
332
300
472
375
335
338
346
356
377
403
419
424
401
356
324
320
317
316
315
318
327
319
318
319
316
320
242
498
388
313
315
319
336
354
378
397
404
386
335
299
294
288
296
306
307
321
316
317
320
326
328
258
561
439
332
334
341
353
368
390
415
422
417
370
328
316
317
320
320
327
337
342
334
333
339
342
323
411
463
355
339
345
351
364
387
412
428
432
407
353
331
326
319
322
320
320
329
331
323
327
328
329
290
464
429
330
321
323
334
350
370
394
408
406
374
326
305
299
303
309
315
328
333
325
327
333
338
330
393
458
373
349
355
363
376
403
421
436
434
404
349
326
322
320
328
328
338
339
333
334
339
342
294
520
465
342
339
342
352
371
393
417
434
432
391
345
326
322
320
323
323
334
323
321
322
323
326
243
541
414
319
325
329
340
359
387
405
408
397
351
311
300
297
302
310
320
329
324
322
329
339
331
333
463
379
346
349
358
371
390
419
437
438
406
355
333
327
328
335
342
345
337
341
341
346
342
289
505
393
344
344
354
366
385
405
424
426
402
346
315
313
312
318
316
323
311
309
310
312
314
238
502
389
319
321
331
343
366
393
415
424
403
354
319
315
317
319
325
336
330
324
326
327
330
251
537
417
333
336
344
355
372
398
419
425
412
361
326
323
323
327
336
334
329
324
326
325
285
477
430
323
324
325
337
352
374
397
410
407
365
320
306
304
305
319
320
311
314
310
315
315
335
427
354
322
329
340
354
377
402
414
421
386
334
315
310
321
328
336
325
324
325
332
324
282
501
381
327
328
337
349
370
398
413
418
389
334
310
310
313
320
328
322
324
326
329
326
313
491
373
338
343
356
365
387
413
427
426
401
350
324
319
323
323
334
328
325
327
330
332
242
596
418
326
330
337
352
370
395
411
421
406
357
320
320
318
323
332
336
333
335
336
335
325
375
462
358
335
341
347
363
385
405
418
419
389
341
321
320
320
322
333
332
331
336
338
340
287
520
448
336
338
335
348
362
385
403
413
403
364
324
306
309
308
311
324
318
316
318
319
323
249
535
425
321
321
331
342
360
383
400
409
403
358
322
311
312
321
321
337
337
332
333
336
340
297
495
453
344
339
345
353
369
392
415
425
424
385
341
324
321
323
325
338
335
327
331
328
334
286
481
442
334
332
328
345
361
382
404
415
408
368
320
305
304
303
310
323
325
313
324
321
321
267
527
429
322
323
331
344
359
388
410
421
414
370
331
319
318
324
330
343
345
335
338
342
344
283
556
456
346
345
351
361
375
399
421
434
424
379
337
324
323
325
326
335
339
332
334
340
338
287
496
448
327
327
327
345
352
380
404
409
407
358
317
298
294
300
301
306
320
310
309
309
315
303
367
416
338
312
321
332
351
371
401
413
414
388
342
332
325
328
334
344
352
344
342
340
345
319
438
461
353
339
342
352
365
389
416
430
430
388
341
322
322
322
326
329
341
333
336
339
332
334
267
502
379
324
330
334
343
359
387
408
407
383
329
303
295
297
298
297
310
306
307
308
309
314
235
548
419
319
318
328
340
361
390
411
419
411
362
326
318
317
323
335
347
341
335
337
339
340
277
509
397
344
348
356
371
390
415
433
439
412
361
336
333
331
335
333
345
338
327
326
329
330
284
463
369
325
326
339
346
365
391
410
414
384
337
314
311
315
321
331
340
330
328
334
336
315
414
441
349
333
330
343
357
379
405
417
418
380
330
311
311
311
313
316
330
327
326
327
330
330
291
483
374
332
336
344
355
374
400
416
424
398
349
318
314
313
315
333
328
329
331
330
331
266
488
390
332
333
338
351
365
391
404
408
387
340
306
302
304
303
311
313
309
310
315
317
239
527
418
314
317
326
339
357
383
399
406
395
349
313
300
301
305
327
316
316
316
321
329
246
570
439
340
341
348
362
380
406
427
434
418
368
338
325
326
329
344
338
336
337
341
340
270
513
392
332
336
341
350
370
394
412
420
393
345
325
313
317
325
336
323
326
326
327
328
260
491
380
325
324
332
343
360
386
406
408
385
338
309
307
308
316
321
316
317
322
323
293
438
454
335
326
331
339
353
379
403
420
420
386
340
322
319
318
326
325
325
323
328
328
244
515
410
321
320
330
340
358
382
396
403
380
332
299
293
298
306
317
314
306
313
312
317
245
500
391
319
327
334
350
376
398
418
422
402
350
324
320
321
333
342
338
342
344
344
327
408
469
364
347
350
357
373
395
417
430
429
391
345
328
326
326
330
341
338
334
338
338
339
256
539
417
338
341
350
358
374
401
421
425
404
358
319
308
309
302
312
321
316
312
317
315
302
360
424
338
314
324
329
350
372
390
406
404
368
322
300
299
304
310
312
326
314
316
321
325
310
389
446
350
337
340
351
365
386
411
422
423
387
343
320
319
323
330
343
335
330
333
335
326
339
465
367
337
338
345
357
382
407
422
422
388
341
321
317
318
323
320
333
333
329
330
335
336
251
540
413
332
326
334
343
358
384
403
408
390
342
310
299
301
299
300
309
312
310
315
311
319
250
537
433
317
323
325
339
361
376
399
410
399
352
314
304
303
312
318
328
340
339
337
340
344
343
291
501
396
345
345
354
368
389
412
427
435
404
354
327
323
323
327
330
332
342
335
337
338
340
288
518
454
337
337
338
346
360
383
409
419
415
372
333
321
320
316
315
320
326
324
317
316
319
319
253
482
383
321
322
327
340
361
385
398
405
382
335
300
297
298
300
304
319
320
313
315
317
325
249
559
435
325
334
341
352
372
399
423
432
421
371
333
323
322
325
330
347
339
334
338
342
344
257
579
436
341
341
348
356
372
398
417
426
413
364
329
325
322
323
326
331
338
331
335
337
342
315
435
455
341
332
331
341
351
375
399
409
411
374
327
303
306
304
307
306
318
319
314
318
317
323
243
547
418
320
323
331
339
356
391
405
412
399
352
316
312
311
319
334
353
346
337
339
341
330
266
566
425
340
345
362
360
376
406
422
433
423
363
337
327
328
329
335
340
331
327
327
331
325
311
460
355
326
321
331
341
359
386
399
405
377
328
302
306
299
299
314
322
322
322
330
335
278
531
452
338
336
343
353
372
394
415
422
411
364
323
314
312
314
320
332
323
323
320
322
324
249
519
397
329
331
336
348
365
393
409
420
405
355
326
320
317
317
331
325
323
327
331
335
258
524
399
330
330
339
350
371
396
419
430
408
352
319
305
307
303
311
313
311
315
316
320
240
491
395
315
319
331
348
370
392
407
412
395
343
312
309
312
323
343
333
326
331
334
334
284
479
392
338
343
351
363
382
407
419
421
394
343
321
320
326
329
336
326
326
325
327
321
342
466
360
337
341
348
360
377
403
421
426
389
343
321
315
315
313
315
314
306
309
319
323
275
515
442
326
326
330
338
353
375
396
410
406
363
323
303
296
300
309
322
325
321
326
331
335
260
521
411
335
343
349
364
385
406
417
425
405
352
324
319
324
327
340
336
336
333
326
333
252
532
403
330
333
340
352
370
395
415
418
397
350
321
317
313
313
313
327
326
324
325
324
328
242
551
409
326
329
335
346
363
387
404
413
399
351
316
309
309
311
323
321
320
322
327
328
243
541
419
329
334
337
354
363
387
408
411
396
350
311
309
309
306
321
315
313
318
316
321
245
517
413
321
329
333
342
366
385
399
410
398
344
314
306
307
320
332
327
324
326
335
340
272
512
411
347
352
358
372
390
411
427
431
410
355
330
326
329
332
339
335
334
336
336
322
388
462
351
333
337
344
361
381
408
420
421
383
337
317
315
318
317
330
331
325
327
329
332
260
547
429
331
333
338
346
361
380
402
405
392
350
312
302
301
300
308
320
312
313
316
319
319
293
435
365
322
329
335
350
369
395
403
404
383
330
308
304
307
312
327
335
326
330
332
335
303
473
451
347
339
342
355
368
389
411
422
418
381
336
320
318
320
322
333
336
330
333
338
335
278
533
454
334
336
340
352
366
389
410
418
414
372
330
318
317
318
319
319
330
335
329
333
334
335
266
536
436
327
322
330
333
354
373
394
402
400
354
312
299
298
297
307
313
319
308
313
315
316
277
478
426
328
321
328
346
358
385
409
421
416
383
337
321
318
322
328
338
342
337
340
342
344
277
553
455
343
342
350
360
376
400
420
430
419
377
338
330
320
323
325
335
337
329
330
334
337
272
532
447
338
338
342
354
369
390
411
419
408
365
327
314
313
313
317
321
329
322
321
324
327
276
496
446
328
327
331
341
357
381
403
412
409
372
331
316
312
316
320
329
325
327
328
334
305
446
442
334
325
329
339
350
375
398
404
398
364
315
300
296
300
306
316
308
310
314
317
296
417
414
333
324
329
341
353
381
399
406
408
373
328
313
314
318
334
343
336
336
337
340
308
494
451
349
345
350
361
377
397
423
429
422
384
342
330
325
327
337
341
338
339
341
344
303
487
460
345
339
343
352
366
390
413
423
418
378
341
319
315
323
317
320
327
327
321
322
321
318
280
444
366
322
318
330
339
361
383
399
405
377
333
300
297
298
299
310
313
312
311
316
322
252
549
439
331
336
342
356
371
400
422
429
413
365
322
315
314
318
330
331
330
333
335
337
255
566
429
337
340
346
355
374
397
420
424
402
351
321
314
315
316
327
330
325
328
327
329
257
571
444
329
334
340
350
365
392
413
424
411
367
327
318
321
322
335
330
327
331
336
334
279
488
383
337
337
339
358
371
397
414
413
384
337
305
300
304
304
314
308
310
311
314
286
422
412
323
309
324
326
344
369
383
397
388
355
305
289
288
294
308
322
316
315
322
329
330
325
459
383
346
350
358
370
390
413
426
428
397
348
323
318
322
331
337
331
335
338
345
301
494
460
348
346
347
359
374
399
419
431
424
382
338
326
324
328
330
337
337
334
336
338
339
259
520
407
336
336
342
352
375
400
418
423
397
352
317
310
308
310
312
322
321
316
318
319
321
270
444
369
317
322
329
343
363
384
397
400
375
324
300
295
300
303
310
322
330
320
329
329
335
257
553
428
338
341
350
360
382
404
423
429
411
360
326
321
322
321
335
338
335
333
337
341
273
554
455
339
340
344
353
369
394
415
424
412
364
328
317
316
317
320
319
332
332
328
331
334
338
261
521
394
325
326
332
344
363
383
398
404
386
339
302
294
298
300
303
313
312
310
314
317
318
249
480
387
317
319
335
340
365
390
402
408
383
333
309
303
303
310
318
336
335
332
338
342
342
301
494
398
349
350
359
370
394
416
429
433
406
353
327
323
324
329
339
337
333
336
339
340
259
542
416
341
340
347
356
377
399
416
425
401
353
324
319
316
323
334
329
320
321
326
328
248
514
401
327
330
338
351
368
392
412
415
393
347
316
313
313
313
322
324
319
320
323
327
247
512
400
324
327
334
344
362
388
406
410
395
347
318
314
317
320
333
328
327
331
335
301
441
443
336
327
331
339
354
375
397
405
404
366
323
305
299
304
318
310
309
315
313
319
261
452
394
326
326
334
345
367
389
403
412
387
341
317
314
318
332
334
330
330
332
336
256
556
437
340
332
343
355
369
393
412
412
401
352
322
319
323
331
339
333
331
337
332
269
546
452
330
329
335
347
363
387
403
411
400
354
319
310
310
317
330
326
329
330
332
289
474
453
333
331
334
341
356
378
397
411
407
372
333
318
311
313
325
314
311
321
312
281
452
425
322
318
321
330
356
375
395
402
396
356
314
301
303
305
325
322
318
323
325
330
249
543
426
334
338
348
364
383
412
423
426
409
362
331
324
327
337
339
338
337
341
341
258
530
416
336
341
347
359
379
404
419
419
393
344
320
315
317
316
327
325
324
328
331
331
265
492
386
336
336
340
352
369
396
412
409
384
335
312
308
309
306
313
319
312
316
319
321
240
505
401
321
317
330
345
362
391
405
410
381
333
302
300
302
307
312
331
327
324
331
333
331
316
465
377
340
340
348
363
386
413
422
423
387
344
323
318
323
321
336
334
332
331
333
335
271
499
388
333
336
343
356
378
403
419
422
393
345
319
316
317
319
319
323
334
329
329
332
334
288
493
450
336
333
341
347
365
382
406
419
410
369
321
309
307
308
304
308
316
311
312
310
318
249
517
424
313
317
322
332
351
374
395
401
390
343
304
296
294
297
310
317
330
321
320
323
334
271
551
451
338
342
346
358
373
400
423
431
419
377
335
322
321
323
330
339
338
334
337
340
342
271
507
394
337
338
346
358
381
401
416
419
392
346
319
319
322
322
327
324
336
330
325
326
330
268
516
441
320
316
320
334
349
375
395
404
398
350
310
296
296
299
303
318
320
310
314
322
327
254
491
393
329
338
347
359
379
409
427
426
394
349
319
318
319
326
334
342
333
333
335
329
260
575
448
331
333
339
352
371
398
418
422
409
354
320
316
315
315
327
332
328
333
331
336
249
577
435
339
340
344
356
377
404
424
431
409
359
325
321
322
322
335
334
332
337
340
330
329
467
364
331
334
338
350
374
397
407
407
369
325
301
299
298
301
317
306
306
309
313
271
485
426
321
314
320
338
350
376
400
408
400
355
313
301
300
310
321
332
327
330
333
337
289
533
457
344
338
345
355
376
403
424
434
423
383
338
328
323
328
340
340
336
338
339
342
264
550
428
342
345
348
359
383
406
423
426
404
356
329
327
327
327
337
349
341
340
334
334
319
372
452
345
327
327
335
346
367
389
400
401
369
318
297
294
292
298
314
314
308
312
308
315
246
533
416
322
319
328
347
368
386
406
413
400
351
323
312
316
322
328
343
340
335
340
343
328
374
459
371
342
349
359
373
393
415
427
428
391
341
323
319
319
326
338
331
329
330
332
303
443
454
337
330
330
340
357
380
403
415
409
364
320
311
309
310
309
320
323
321
319
325
327
253
540
428
327
327
330
341
356
384
407
413
398
354
316
309
309
312
313
325
323
316
323
330
325
252
492
394
326
330
338
351
371
395
410
415
393
347
316
311
309
313
325
337
322
327
335
329
271
498
443
323
319
327
327
336
361
370
365
357
324
288
279
286
308
328
332
340
360
348
317
490
459
357
350
350
363
379
401
422
428
417
377
334
311
315
322
342
334
330
336
338
284
547
471
333
331
335
346
366
390
412
418
412
358
321
309
310
314
318
316
326
326
330
255
607
452
329
333
335
349
364
388
401
405
395
345
314
305
302
313
312
318
318
327
328
243
509
414
326
333
339
356
372
390
402
410
389
338
309
305
300
318
316
311
317
309
319
236
518
423
310
315
321
337
358
384
400
408
392
353
330
328
325
342
353
339
333
336
336
241
576
426
321
324
329
341
358
384
395
399
379
340
308
305
311
327
313
329
328
338
323
399
441
355
339
338
350
363
384
406
413
414
376
335
323
323
327
339
333
332
333
336
275
541
459
334
334
344
351
370
391
408
413
405
363
321
317
317
310
324
325
325
322
326
324
235
503
404
322
323
329
342
365
379
398
405
389
340
309
297
305
311
324
317
317
318
322
279
467
436
333
338
338
351
365
384
406
408
406
366
333
321
315
319
333
321
316
323
326
280
486
435
336
332
334
346
361
384
397
399
393
354
331
310
319
319
335
325
327
325
332
256
561
449
331
334
341
351
370
394
408
409
393
349
316
309
318
321
324
326
324
326
327
239
542
423
335
329
346
359
378
403
417
418
392
341
325
317
321
332
337
332
333
334
336
292
492
386
335
338
348
361
385
409
419
413
383
333
311
307
305
314
314
311
313
319
317
265
450
367
310
309
326
333
357
384
391
385
355
318
299
297
302
319
318
321
327
333
318
389
437
362
338
334
352
362
389
408
420
410
375
330
317
315
317
326
332
330
329
332
333
248
572
434
332
335
343
353
372
399
415
418
399
353
335
328
321
330
326
319
322
321
315
308
443
356
321
326
329
350
370
388
403
388
361
319
302
305
306
321
314
314
316
317
281
479
442
333
324
332
343
367
394
416
426
414
372
335
321
324
329
351
345
345
346
347
291
548
475
350
344
347
357
374
399
420
425
413
368
342
331
327
322
327
330
320
318
318
321
241
532
423
313
311
320
332
348
371
383
392
378
332
295
285
286
292
298
310
300
300
308
313
253
536
439
327
331
338
352
367
396
411
417
406
363
328
321
324
328
339
348
340
344
350
343
280
509
394
340
341
348
364
391
418
430
428
384
338
318
314
314
313
321
323
326
327
330
309
389
451
346
330
334
341
352
378
399
406
400
359
317
301
300
303
308
316
311
314
315
317
235
510
390
321
325
331
349
371
399
414
416
390
342
320
318
318
327
332
325
330
320
328
249
485
390
317
319
325
339
358
378
395
393
368
320
295
291
288
303
302
301
301
306
310
228
475
387
308
312
324
340
362
390
408
409
383
338
317
314
320
330
345
343
340
342
350
312
493
471
360
357
362
369
389
412
432
440
433
389
349
341
339
339
340
353
350
345
346
346
336
363
474
364
341
339
347
362
384
408
420
416
390
341
322
316
310
309
310
321
313
312
314
313
282
448
421
323
318
320
330
348
371
392
400
391
352
314
300
296
304
305
311
322
325
322
330
334
325
387
444
366
342
348
359
370
395
419
431
421
385
340
320
322
322
333
347
337
332
338
339
332
368
475
373
343
346
355
369
398
421
433
427
383
343
326
327
327
333
337
339
342
337
338
340
342
284
533
445
333
331
330
337
351
375
404
405
394
351
307
298
295
295
300
309
313
327
316
322
324
327
282
496
439
332
327
332
344
363
387
414
420
415
371
330
318
317
318
324
324
338
338
335
333
337
331
284
516
386
333
339
342
355
378
403
422
423
388
340
313
314
315
319
324
337
326
324
330
325
259
579
449
325
322
327
340
352
379
400
408
392
343
308
302
298
303
304
325
317
314
318
322
265
522
443
310
307
309
325
342
368
393
405
393
352
316
316
322
332
343
363
359
356
352
358
328
437
491
365
349
351
363
372
399
426
430
430
390
344
329
324
328
327
338
332
331
333
336
302
471
476
338
326
330
337
350
371
396
405
400
361
320
305
303
304
305
316
318
316
319
324
326
238
568
394
330
331
338
350
372
400
414
423
405
357
329
321
322
324
328
335
329
335
339
341
255
601
433
338
339
345
355
376
399
418
421
403
363
320
309
304
300
309
320
319
321
325
328
262
559
460
344
346
350
364
382
406
421
423
412
369
335
325
327
330
336
340
334
331
329
332
269
512
448
328
326
333
339
357
375
394
401
392
352
314
305
304
302
307
320
310
306
310
308
294
362
416
336
316
317
325
335
366
383
389
393
360
319
301
302
313
315
332
324
318
319
322
307
372
449
343
325
325
333
347
375
399
409
406
369
328
310
315
318
322
333
331
328
331
336
322
386
471
355
337
338
345
360
387
413
426
413
375
326
310
305
307
304
314
327
317
316
321
322
291
485
447
331
329
334
339
357
382
404
408
403
367
324
312
308
310
324
340
336
332
329
334
340
276
503
407
347
346
355
365
389
413
425
423
392
347
327
323
325
327
344
337
336
329
332
314
396
465
354
333
338
349
365
388
411
423
416
377
330
316
314
317
316
323
328
324
326
329
332
240
564
409
326
329
339
350
374
401
417
419
399
352
325
321
324
327
340
337
338
337
340
338
288
510
383
342
345
352
366
388
408
416
417
386
335
317
315
310
310
318
320
314
318
322
319
268
462
372
317
321
327
340
363
383
400
396
372
322
300
296
302
313
324
319
319
322
332
321
342
447
364
330
336
345
362
388
411
418
414
378
337
317
315
317
335
333
328
330
331
331
246
568
439
330
329
339
351
371
395
413
418
399
351
324
318
316
316
324
334
324
326
330
333
278
511
451
331
328
333
341
357
382
403
416
412
367
329
315
316
315
314
322
315
319
318
320
293
418
428
325
318
317
331
348
371
389
397
396
353
317
300
299
302
314
325
315
312
317
320
314
334
445
361
332
336
351
360
394
413
422
419
385
342
324
321
324
334
345
342
338
342
344
333
357
475
368
340
342
350
362
386
412
422
417
381
337
319
316
319
319
329
333
328
330
332
336
279
509
453
328
328
329
337
350
380
393
397
390
346
312
299
301
300
298
310
315
310
311
314
314
262
520
436
318
318
325
341
358
385
403
412
401
364
331
324
327
321
326
336
331
332
332
334
275
543
454
339
338
343
355
369
392
414
415
398
356
322
313
314
315
322
332
325
325
330
334
314
421
469
351
334
339
347
362
388
411
422
418
379
336
321
322
320
329
332
332
332
337
336
253
538
418
332
334
338
348
369
391
406
408
380
332
305
302
298
304
313
310
309
311
310
307
290
410
347
309
310
321
334
357
382
394
392
357
322
303
299
300
310
322
317
318
320
324
312
398
443
356
344
341
350
368
397
415
423
418
379
338
323
325
321
339
339
337
341
343
344
266
574
450
343
345
348
362
380
407
424
426
408
359
328
324
325
324
333
341
334
336
337
341
316
410
451
337
325
329
337
349
374
392
404
401
364
317
304
302
301
302
313
316
312
312
317
323
248
540
432
320
326
332
341
366
392
410
418
399
353
327
322
319
326
330
344
343
338
340
347
345
318
481
385
341
346
351
366
394
418
432
429
393
350
331
328
329
332
348
342
339
341
343
339
308
486
379
339
340
344
359
383
408
421
421
387
342
321
318
312
311
313
322
315
313
314
316
292
403
427
324
308
314
326
343
365
388
394
392
349
311
292
292
292
298
317
319
314
318
324
326
246
540
416
333
338
346
358
384
412
422
424
395
348
320
320
316
323
329
342
337
334
334
340
287
521
467
343
348
347
358
365
391
414
424
411
365
327
317
316
322
321
333
332
328
329
332
332
288
489
377
334
336
344
358
382
405
418
416
382
336
315
312
315
317
327
334
329
331
332
338
248
539
409
331
332
337
349
371
399
413
418
402
352
313
321
320
316
328
322
319
322
323
287
441
439
328
319
325
334
349
375
394
400
391
345
306
289
295
298
314
323
316
316
319
318
235
567
428
323
327
338
356
379
410
424
429
405
353
329
326
326
337
348
343
341
339
343
335
354
484
363
339
345
354
367
396
414
425
421
378
334
323
318
321
322
338
338
330
330
334
335
263
522
391
337
334
343
347
368
393
405
407
381
330
313
311
317
321
332
343
335
334
337
334
303
459
469
341
338
333
344
357
379
404
416
403
365
326
308
307
309
304
311
318
314
311
317
319
264
467
378
323
325
333
352
371
400
405
408
375
334
308
304
307
317
332
324
320
326
330
311
433
458
359
343
344
359
372
397
425
425
421
378
337
321
326
328
339
340
333
332
332
336
240
553
424
333
334
331
349
362
392
408
413
382
336
311
307
309
312
321
325
321
326
329
332
247
522
396
323
319
327
339
359
388
402
403
374
329
305
306
308
315
322
320
319
322
323
281
455
455
330
326
327
339
353
381
402
410
404
355
318
303
304
304
314
308
309
310
315
307
303
428
353
319
322
330
347
370
390
402
396
360
319
300
299
306
320
320
321
314
322
319
234
532
417
327
331
341
356
377
402
411
418
388
342
320
314
321
332
339
335
336
335
343
256
588
455
340
339
346
358
377
403
419
418
399
348
321
318
316
321
337
330
331
332
331
295
473
457
336
331
335
347
362
390
410
417
404
364
324
316
315
318
323
333
329
331
334
339
285
504
455
335
330
336
339
360
384
406
410
396
357
318
308
307
308
306
319
324
319
323
324
326
263
541
448
329
329
330
348
365
388
401
408
393
351
316
311
311
318
318
330
341
334
331
336
341
273
573
458
337
342
344
358
375
402
418
425
407
359
328
315
315
318
327
337
326
327
328
334
253
561
444
327
329
334
345
367
391
409
412
392
342
311
308
308
313
314
321
328
324
324
329
326
256
508
387
325
326
335
350
372
396
412
413
381
338
316
312
312
316
323
335
327
328
330
334
297
465
458
337
331
336
348
359
387
407
415
406
364
329
314
313
316
321
329
343
336
337
332
334
250
514
401
331
327
338
344
368
394
408
412
381
336
312
305
305
309
313
324
320
318
326
332
263
548
451
342
342
350
362
380
405
423
424
405
358
325
314
314
318
322
333
334
325
328
333
333
251
536
411
332
333
343
357
378
402
420
423
400
352
326
321
321
325
335
336
333
332
337
336
274
486
384
332
333
344
355
373
399
408
410
375
330
304
306
303
305
313
323
313
323
320
324
257
535
439
324
320
331
340
362
388
402
409
396
349
311
298
303
305
311
331
322
324
326
332
331
257
531
414
338
341
348
364
384
406
421
422
397
348
323
318
318
323
334
331
330
333
337
336
253
544
412
333
334
342
351
372
395
410
414
390
345
320
318
321
320
316
327
325
325
327
328
331
246
552
421
324
326
329
346
356
383
399
404
385
339
308
298
302
304
307
315
331
314
320
321
323
285
490
440
337
333
339
350
367
394
416
425
420
382
344
329
327
331
334
347
341
339
339
344
342
288
501
391
343
344
351
366
389
411
425
422
392
345
325
319
321
322
326
334
335
331
331
330
335
252
524
400
324
327
333
345
364
389
405
410
395
341
313
302
303
304
298
308
313
308
306
312
312
251
506
423
313
311
315
327
346
374
387
393
385
340
306
295
299
301
311
316
327
325
329
330
339
333
297
486
390
338
339
350
365
386
413
428
424
391
342
324
321
321
330
340
344
336
338
337
338
266
569
456
334
335
345
353
377
403
418
421
403
358
324
320
316
315
322
333
337
332
335
337
337
253
571
442
335
336
342
351
372
398
419
423
405
357
326
321
323
326
329
335
344
338
336
341
336
291
488
455
332
329
327
337
353
375
393
401
393
349
314
302
300
304
304
310
324
317
319
318
322
309
357
440
347
322
332
339
347
377
404
416
412
378
337
322
320
324
330
331
345
340
338
340
343
344
269
520
403
335
333
349
356
385
404
421
417
390
338
312
311
311
319
323
331
340
333
330
334
338
273
553
462
336
335
342
349
366
391
413
421
407
366
326
318
317
317
318
332
330
327
330
332
334
249
545
413
327
326
333
340
361
389
402
407
385
338
305
303
302
300
302
311
321
315
315
318
322
304
391
426
344
323
329
340
353
373
402
410
408
377
335
314
310
316
322
331
347
344
343
343
344
344
266
574
447
338
339
343
356
374
399
415
420
410
363
332
321
321
321
323
326
340
333
335
337
345
327
376
461
356
334
335
342
354
379
402
416
415
379
334
308
308
305
308
311
324
332
324
331
329
326
314
395
422
351
331
338
347
363
386
408
417
418
387
340
326
324
329
334
334
342
351
340
339
341
349
340
358
473
370
342
348
355
366
389
412
424
420
392
343
322
319
320
321
324
328
337
331
330
329
333
330
286
483
370
326
328
334
350
368
392
408
411
379
330
307
304
301
303
308
307
318
319
317
317
318
323
245
529
420
317
317
324
336
361
384
402
410
400
358
320
314
314
317
326
328
328
336
336
331
329
331
334
243
575
424
323
325
332
345
364
392
411
418
406
361
327
320
318
320
321
325
337
334
328
334
344
339
261
541
419
329
338
330
348
362
388
403
409
391
348
312
304
306
308
309
317
332
320
322
324
327
330
269
465
387
328
330
338
353
370
397
406
411
389
343
320
315
322
331
338
348
346
338
343
342
342
267
571
448
338
338
346
357
377
404
419
425
409
364
329
320
319
322
327
337
339
335
335
336
338
296
477
457
338
335
337
347
361
385
410
423
417
374
328
309
305
311
304
308
318
315
316
315
319
321
243
531
420
316
320
327
338
356
383
401
402
389
343
310
303
300
309
318
328
331
327
327
334
339
296
519
454
348
343
350
361
380
403
416
427
417
373
333
321
323
327
335
340
339
336
338
338
342
291
523
455
338
336
340
349
367
391
413
419
409
365
325
313
309
310
315
323
326
324
327
332
334
275
530
451
329
329
334
345
360
385
405
414
402
362
329
317
315
319
321
330
326
326
328
333
319
339
451
352
325
325
336
351
373
398
407
402
368
326
307
300
306
309
319
320
314
318
320
325
282
489
425
327
320
329
339
361
385
405
410
403
360
326
313
313
320
326
341
336
332
332
333
336
261
554
436
333
339
344
354
371
397
415
420
404
356
325
319
318
323
326
337
333
330
332
333
336
260
537
416
333
334
344
353
372
401
417
423
405
358
328
317
316
312
317
324
327
319
319
320
323
259
518
425
321
322
324
337
358
377
404
401
394
347
312
302
299
308
308
319
323
315
319
323
325
317
364
438
356
332
335
348
362
386
411
420
418
385
338
320
318
319
322
335
339
334
333
338
341
323
408
461
355
342
344
352
367
386
412
425
428
385
341
322
320
316
315
315
322
329
323
328
329
328
266
532
435
327
328
332
344
364
388
411
410
397
354
320
305
305
308
316
318
333
331
327
333
336
341
263
559
434
340
340
346
360
383
405
423
428
409
360
328
322
323
324
329
339
333
330
329
336
340
260
541
409
328
327
329
345
362
389
407
410
385
337
310
308
313
314
320
332
333
327
327
330
328
254
514
404
327
333
337
352
370
399
414
420
398
351
320
312
314
321
328
337
330
328
330
334
323
339
456
361
334
332
340
355
376
401
414
411
380
330
310
302
306
309
322
315
317
318
319
321
251
469
393
319
330
332
348
367
395
403
404
386
335
309
303
310
321
336
331
329
334
337
340
261
569
436
340
342
346
359
381
405
421
423
401
355
324
317
315
322
335
328
327
328
331
335
258
524
402
329
332
340
351
373
398
413
416
389
345
316
314
315
318
326
329
324
325
327
330
291
471
445
335
334
338
343
354
378
400
406
401
360
313
304
298
305
300
315
315
311
312
315
317
269
494
426
321
319
324
337
356
381
402
410
403
366
328
317
316
324
329
342
341
336
333
341
346
259
570
432
341
340
346
362
379
406
422
423
404
362
328
326
323
327
330
340
333
334
339
341
335
340
465
373
345
345
349
366
388
409
415
413
382
332
315
311
308
323
316
325
318
318
318
320
324
260
453
379
315
322
322
342
363
390
402
401
375
330
304
297
304
310
321
334
325
327
332
334
315
408
456
356
335
343
347
362
389
411
421
413
372
330
313
311
314
322
331
325
321
323
324
319
315
473
362
330
329
341
354
379
408
418
416
380
335
314
312
316
319
328
334
328
331
329
333
261
547
454
330
332
338
349
368
395
414
423
406
362
326
317
318
320
322
334
333
332
332
337
338
264
510
387
328
330
337
348
373
396
414
413
386
336
310
306
308
308
310
325
316
320
318
322
322
252
483
388
319
322
331
344
367
392
400
405
377
330
305
299
303
310
324
332
328
331
332
337
313
423
463
357
341
346
351
369
