336
353
370
374
368
340
311
305
306
318
323
315
319
323
327
234
605
396
319
324
331
342
359
372
376
368
340
311
306
307
319
318
311
311
312
311
219
559
370
298
299
305
314
329
342
342
335
305
275
273
270
280
283
274
274
279
281
199
484
347
269
275
280
290
308
322
320
321
291
267
261
257
278
279
270
272
278
280
237
397
344
286
288
295
313
330
341
347
340
315
295
296
297
318
312
309
312
320
318
302
444
363
326
332
337
350
367
378
383
369
338
318
317
316
335
327
320
320
324
324
252
536
375
318
320
328
338
360
373
376
369
336
314
312
314
333
328
323
327
329
326
296
514
361
328
334
343
355
373
386
388
377
344
324
327
330
342
336
334
338
341
289
563
460
334
337
340
349
362
380
386
385
364
330
322
320
333
329
326
330
334
334
259
558
379
326
329
337
347
362
377
377
371
338
313
312
317
327
318
320
321
324
257
600
436
316
323
328
336
355
368
373
373
352
320
316
313
329
321
319
321
324
312
377
465
336
319
323
330
342
357
367
368
356
320
305
306
316
318
309
314
315
319
234
571
386
318
317
325
338
356
367
369
367
339
317
312
320
332
324
325
331
333
270
542
438
326
336
342
346
362
375
377
374
351
320
314
315
323
311
310
306
305
265
475
392
298
295
297
304
320
331
332
330
313
284
271
275
288
282
272
276
277
262
364
394
294
278
284
291
307
326
335
333
320
287
277
279
294
297
291
295
298
301
229
532
357
303
309
318
330
350
361
369
360
327
308
310
323
326
320
322
327
329
238
605
392
323
330
336
347
366
381
384
374
339
316
315
324
328
322
321
324
326
231
618
393
320
326
334
344
362
376
380
375
342
318
315
325
334
323
326
331
333
247
630
418
328
333
341
354
370
383
385
382
353
328
327
331
342
333
334
337
337
270
570
443
329
336
340
346
363
379
380
378
352
319
313
309
326
315
308
315
311
281
465
407
318
314
319
326
343
361
364
361
343
315
304
303
323
320
312
314
316
316
291
437
362
317
326
335
350
368
379
378
366
333
318
318
323
341
330
324
331
332
280
537
440
327
326
329
337
352
369
379
373
348
317
307
306
315
321
314
316
317
320
232
588
398
310
315
321
330
349
367
370
363
331
306
304
302
322
318
313
318
321
320
280
494
358
323
327
335
349
366
380
380
365
329
312
312
307
325
320
315
316
316
311
271
464
340
298
300
306
311
330
337
337
321
287
262
261
253
274
269
263
262
262
257
269
361
287
256
261
269
287
304
319
316
300
272
258
258
262
280
280
272
280
283
287
252
432
338
293
303
309
326
347
364
363
354
324
302
304
310
320
330
319
322
324
329
250
592
428
321
324
331
343
360
380
388
386
358
326
321
324
325
345
338
336
338
341
331
375
487
356
340
344
353
365
384
398
400
384
347
331
331
332
346
349
344
348
351
354
268
609
427
349
354
359
369
387
403
408
400
368
340
335
336
336
352
343
337
343
345
331
385
444
351
336
335
344
354
372
383
379
367
332
315
313
313
329
333
323
322
325
328
253
549
417
314
321
330
341
362
375
378
370
341
315
309
311
310
329
321
312
313
314
309
282
452
340
298
299
301
309
324
335
330
315
275
252
246
247
246
260
248
243
241
245
200
417
356
234
235
240
247
261
281
292
292
272
237
228
233
236
249
257
252
256
264
267
187
558
370
272
279
286
300
319
340
350
351
324
294
291
297
298
320
319
317
324
328
331
257
547
381
333
336
340
354
372
387
390
380
344
318
316
319
325
335
330
330
334
335
284
533
455
333
337
339
351
368
387
394
393
372
339
332
335
336
353
345
346
347
349
338
380
445
368
345
354
361
373
392
404
400
388
355
339
337
339
359
353
339
340
344
345
281
525
407
339
341
347
358
380
391
391
379
348
326
321
323
330
342
330
329
330
332
279
540
441
326
327
334
339
356
371
380
378
357
320
308
313
315
330
322
319
321
327
316
344
475
343
323
327
337
351
369
381
384
372
338
315
318
321
339
333
331
332
335
336
272
517
378
330
331
336
350
364
377
379
369
337
310
314
312
328
319
315
319
321
322
267
470
373
316
322
332
341
361
374
376
363
336
315
309
316
333
326
317
321
326
327
261
524
392
324
331
338
352
371
387
387
379
346
322
320
319
333
334
325
328
332
331
251
612
421
321
323
331
341
357
373
379
372
346
312
308
311
318
326
319
319
324
326
263
581
432
318
323
327
338
353
374
382
381
355
322
313
315
321
329
321
324
327
329
274
567
445
324
330
336
344
362
380
389
387
367
336
325
328
336
338
329
334
331
335
283
512
443
320
321
322
331
341
356
360
359
332
299
286
278
295
292
277
278
277
278
212
494
374
261
268
269
280
295
307
311
309
284
254
246
246
262
267
254
254
261
264
199
508
367
262
271
279
292
307
327
334
331
307
278
273
276
288
297
289
293
296
301
249
531
420
303
310
316
328
344
365
376
373
351
321
314
314
328
334
328
332
336
340
280
588
455
337
340
350
359
375
397
402
403
379
350
341
341
354
356
351
353
358
360
288
617
459
355
363
366
370
387
404
408
402
372
340
333
332
350
343
335
337
337
338
276
521
407
337
339
344
356
378
387
388
378
354
328
325
328
345
339
330
334
336
338
269
536
397
327
336
339
352
371
386
388
377
348
322
318
318
336
330
325
323
329
329
246
575
396
321
325
334
345
360
376
377
368
336
311
311
305
324
316
312
317
320
321
237
564
378
313
315
322
333
352
368
372
361
329
306
303
305
322
315
310
312
315
317
227
572
380
312
317
324
337
356
371
374
368
336
311
312
311
330
327
323
322
327
329
239
606
403
320
323
332
342
358
372
376
369
338
308
306
306
317
321
315
318
322
323
245
598
414
312
319
326
335
351
374
378
373
348
319
310
306
312
320
311
310
315
311
270
454
396
291
286
289
292
301
316
318
310
292
253
241
234
243
245
233
229
223
226
209
309
316
225
216
218
224
237
260
270
265
252
223
208
209
215
239
232
229
235
243
251
177
462
319
256
266
276
291
314
336
342
337
311
290
293
298
314
320
317
323
330
336
258
633
442
334
342
353
366
379
398
407
405
378
348
344
348
358
362
352
355
358
360
283
647
457
352
355
363
371
388
406
413
408
383
351
343
347
357
358
353
356
359
361
286
646
463
357
363
370
377
393
411
418
419
391
356
352
348
365
359
351
354
354
358
284
552
436
345
349
355
364
378
391
396
387
362
340
330
336
351
337
329
330
333
325
378
432
352
326
333
337
352
372
377
379
363
333
315
312
320
328
323
319
324
325
288
509
440
319
320
324
334
350
370
377
374
356
321
310
310
326
325
319
321
326
324
238
602
396
322
326
335
345
365
377
382
371
340
313
316
318
330
317
318
321
322
271
536
434
308
312
317
327
342
359
365
359
336
303
298
295
310
303
299
301
302
294
308
449
318
293
298
305
314
332
336
342
321
293
277
274
292
289
281
285
292
292
235
439
354
289
297
310
323
338
344
341
333
296
276
275
290
296
284
282
287
284
231
492
394
282
284
289
300
315
333
335
334
311
278
274
273
296
294
290
291
294
295
229
501
350
298
304
313
325
346
359
360
346
319
300
298
307
320
312
312
317
321
262
566
438
317
321
326
338
356
374
383
379
354
321
315
312
328
323
319
321
324
320
296
492
346
324
328
337
351
372
384
387
375
338
321
324
334
339
331
335
337
341
258
603
426
341
349
356
365
383
398
404
398
369
346
348
348
363
356
353
354
361
315
503
462
345
349
359
364
377
394
403
395
369
341
326
329
347
333
330
328
332
319
374
438
345
324
326
338
351
372
383
375
358
326
312
310
323
332
318
318
320
325
245
562
404
312
311
327
334
345
358
349
335
300
284
273
274
297
269
264
265
258
233
365
319
250
239
244
256
269
284
292
284
261
230
216
221
223
240
226
227
227
231
175
457
340
226
233
241
258
273
301
313
319
294
264
257
266
273
299
293
292
299
309
277
461
436
317
319
327
337
357
381
392
394
378
345
332
335
339
356
342
343
349
348
272
569
449
332
336
346
347
363
381
386
382
358
326
318
319
332
331
321
325
332
327
289
470
376
331
336
342
359
376
388
385
376
342
323
323
325
342
341
335
340
342
328
370
485
354
336
341
350
366
386
398
399
384
349
335
341
342
358
357
350
356
359
344
419
505
370
356
360
364
379
398
406
402
381
343
328
327
327
342
336
330
333
335
305
457
460
330
323
325
335
350
368
379
374
357
320
303
306
305
319
320
310
317
317
302
396
449
324
311
320
326
343
364
376
377
362
327
314
315
312
333
327
325
329
330
295
476
445
327
325
329
339
353
371
380
378
357
327
305
306
304
321
314
311
306
313
261
510
420
304
305
312
322
339
356
365
359
336
307
299
300
309
323
311
310
314
322
244
542
409
317
324
331
345
361
382
383
378
350
322
320
324
330
341
328
327
328
331
249
588
412
322
327
333
345
366
381
383
374
340
314
310
313
324
329
323
324
329
330
250
547
393
329
336
343
355
375
389
393
382
349
323
323
323
336
340
332
333
336
335
289
496
369
332
334
339
352
373
386
385
372
336
316
316
314
331
326
319
320
321
312
335
439
331
310
313
320
334
353
368
369
348
314
294
290
289
303
300
293
295
303
290
326
378
318
297
304
313
329
348
355
357
342
311
294
295
296
316
314
301
309
313
314
284
429
351
313
315
330
338
363
373
375
362
328
307
308
311
318
328
316
315
315
320
244
565
415
308
311
317
327
341
359
363
360
329
298
292
294
294
308
310
302
308
310
308
281
466
339
307
312
320
333
356
370
370
357
321
303
302
306
309
326
319
318
325
324
270
538
435
322
325
333
345
362
383
392
391
369
335
329
333
325
342
347
332
333
338
336
293
447
371
334
333
341
358
374
391
387
378
346
324
324
320
336
338
324
327
330
331
268
562
427
330
339
344
358
372
393
397
390
359
330
325
322
325
341
337
328
333
334
335
286
510
374
329
331
336
351
371
386
389
376
340
316
316
318
315
331
321
317
318
319
279
489
434
313
312
318
326
343
364
373
374
350
313
303
304
303
310
320
312
314
317
321
231
616
401
315
321
328
339
357
376
383
379
347
318
316
318
317
339
334
331
335
339
327
373
484
351
335
340
348
362
380
392
392
377
339
321
321
325
322
336
326
323
327
331
266
574
435
315
319
323
332
349
365
372
370
349
311
300
300
302
305
314
306
308
311
311
226
562
392
304
310
317
326
342
361
364
364
336
304
294
296
293
312
305
301
301
304
295
325
387
327
300
305
313
329
344
357
360
343
318
293
292
297
309
315
303
309
310
316
249
541
412
314
322
329
345
362
382
387
385
356
328
320
324
326
341
339
330
335
337
339
280
531
387
336
342
349
362
384
399
400
389
354
331
331
335
336
350
343
340
342
344
303
514
463
335
332
337
344
357
376
386
386
364
326
317
315
315
327
327
319
322
324
326
235
601
385
320
325
331
343
362
377
381
372
339
311
312
314
314
327
322
324
326
330
284
546
450
325
327
332
340
357
378
387
386
364
328
317
318
318
334
331
324
325
328
328
260
536
364
320
324
331
344
361
375
377
369
333
311
310
313
320
330
323
324
328
331
262
579
437
322
332
333
341
357
372
373
376
350
321
307
312
314
327
322
316
321
321
297
449
415
328
318
325
336
354
369
380
378
361
330
314
318
320
337
330
319
321
324
323
283
460
368
319
322
328
342
359
372
373
360
328
308
306
307
315
324
317
315
319
320
257
578
428
313
319
323
334
354
372
381
378
352
321
313
317
318
336
328
326
329
332
311
433
469
340
330
337
346
359
378
390
391
371
333
321
323
321
338
331
326
328
332
329
298
514
358
327
330
337
350
370
382
387
374
335
317
318
317
334
328
323
325
329
329
261
529
369
325
331
338
350
371
384
385
375
343
320
322
319
336
336
327
334
333
334
266
505
395
330
335
340
352
368
381
383
373
342
316
315
312
328
319
312
316
315
318
287
426
355
309
311
322
339
353
365
367
356
325
307
305
308
325
320
313
316
319
322
268
478
367
318
322
332
344
367
383
386
376
339
319
315
317
332
329
324
324
327
329
243
566
385
321
323
333
344
358
375
379
369
335
311
310
310
326
324
318
321
325
325
240
559
375
318
322
330
338
355
375
378
369
332
310
309
307
324
316
313
318
322
319
293
492
352
321
326
336
350
371
384
387
373
337
321
324
325
341
332
330
332
334
326
331
490
351
327
335
337
352
370
384
387
371
338
321
327
322
335
329
326
330
332
304
456
452
331
327
331
338
353
372
380
383
366
330
319
312
314
324
314
313
315
319
260
513
415
309
317
321
332
346
363
372
365
343
314
305
306
327
321
312
315
316
322
251
502
392
312
320
325
336
355
370
371
362
328
305
304
304
324
319
311
312
315
316
241
517
369
308
311
320
333
351
368
371
359
326
305
304
304
322
318
314
318
321
322
258
527
368
321
327
333
346
367
382
386
377
337
320
321
319
337
330
326
328
330
323
333
493
346
324
329
336
350
370
383
383
368
329
311
314
313
330
321
319
320
323
302
416
458
326
321
326
334
351
369
381
383
365
328
315
318
318
333
328
327
330
335
310
438
454
337
330
336
345
357
376
382
384
366
327
314
316
320
334
318
320
322
324
289
484
421
321
319
325
335
350
370
375
372
351
325
314
316
324
338
328
323
324
330
302
446
433
333
322
325
335
351
370
379
376
354
320
309
310
310
330
325
318
322
327
326
280
517
357
321
326
334
347
367
382
385
371
333
315
316
315
331
327
321
323
326
323
258
530
358
316
319
324
340
359
374
377
365
325
305
303
303
322
315
314
315
319
315
301
479
338
314
315
322
332
349
362
363
348
315
296
297
292
306
295
295
294
301
263
428
390
285
279
284
291
304
321
327
323
301
266
254
248
266
260
248
251
252
246
187
429
325
240
249
258
268
292
308
312
303
274
253
253
257
276
267
266
269
275
264
332
404
300
281
288
300
317
340
354
355
338
305
294
298
307
315
311
312
318
322
253
607
432
323
328
336
348
366
388
397
393
363
332
330
328
349
343
340
342
344
342
303
539
377
344
347
354
367
386
400
403
389
350
334
334
336
346
337
339
340
344
283
605
456
336
340
345
352
370
389
394
391
364
332
327
328
342
341
336
338
342
344
256
588
401
335
340
348
360
379
393
394
387
351
326
327
326
343
336
334
337
341
325
396
479
347
339
343
344
359
375
380
379
356
320
303
295
310
303
292
288
289
293
218
483
375
271
278
283
295
311
326
329
325
294
269
263
267
286
283
275
279
281
276
292
421
318
283
292
300
313
333
346
346
335
299
283
286
288
304
295
294
296
299
242
546
419
298
301
308
319
336
358
364
363
337
306
303
304
325
316
314
318
324
318
337
498
345
327
331
339
354
377
390
393
376
340
326
327
343
341
336
341
343
347
272
582
393
342
345
352
365
385
399
399
388
351
329
328
338
341
333
336
338
336
241
635
413
327
331
336
348
366
380
385
379
344
317
316
321
331
325
325
328
331
253
629
435
324
328
335
346
362
380
386
385
356
326
325
325
341
332
331
334
337
293
549
461
334
336
341
351
366
384
393
389
367
330
322
321
335
330
322
324
325
323
289
501
354
317
321
330
341
358
370
370
358
324
305
306
306
322
314
312
314
318
255
581
434
315
320
327
336
354
370
373
374
352
323
316
317
329
332
324
326
332
332
274
481
388
330
334
343
352
369
384
384
374
345
320
317
313
334
318
313
317
318
296
419
389
323
316
317
330
340
360
367
364
348
322
305
308
309
328
312
312
317
319
280
499
413
317
320
326
337
351
372
377
373
354
324
315
320
319
339
332
325
329
331
306
441
450
335
329
333
340
354
376
386
386
366
332
320
321
318
334
328
320
324
327
322
311
489
345
318
322
329
343
362
376
379
363
327
310
311
311
318
325
317
318
324
326
241
611
414
317
323
331
340
360
380
385
383
356
328
324
331
328
351
348
340
342
348
336
400
464
358
340
342
347
361
375
390
385
365
332
316
307
313
327
323
313
316
314
315
240
504
386
305
303
312
319
340
356
354
348
322
297
290
294
297
319
310
304
305
310
289
411
414
318
309
314
325
340
361
373
371
352
319
304
302
307
314
326
314
314
318
322
241
606
415
310
314
317
327
345
365
370
365
337
306
302
304
305
325
316
310
312
315
302
354
463
324
309
313
321
337
357
371
373
356
321
304
304
307
318
323
316
318
322
324
235
593
385
319
326
335
347
367
384
389
384
351
327
324
327
334
341
332
337
337
339
249
643
424
329
333
337
348
365
381
385
379
349
319
314
316
322
330
320
320
323
325
238
623
416
314
320
327
337
353
371
375
370
345
316
311
312
322
327
319
320
323
326
239
598
399
324
332
339
351
367
383
386
382
356
326
324
328
340
333
327
326
330
316
356
417
341
320
321
326
338
357
363
363
348
320
301
304
313
316
304
302
308
308
244
526
399
305
310
316
330
346
364
370
367
342
314
309
309
327
322
317
323
325
323
275
495
373
324
328
335
348
367
379
382
370
339
318
319
325
338
328
327
331
331
265
590
438
322
327
331
343
358
379
383
372
346
316
313
311
324
318
317
320
322
299
442
453
325
320
327
335
349
367
376
376
353
318
308
306
325
318
314
318
319
313
314
486
339
316
321
330
343
363
376
378
365
330
319
316
333
331
328
330
335
331
312
473
357
330
330
334
346
366
376
372
356
321
303
302
314
302
298
299
299
289
365
384
314
299
298
310
327
343
353
353
335
303
289
291
312
303
298
302
308
295
370
406
329
313
318
327
343
365
372
368
351
319
308
306
324
319
313
315
318
317
286
488
350
311
315
321
333
354
364
364
350
315
298
295
310
308
301
304
308
308
261
501
344
307
312
321
334
355
368
369
356
322
306
304
320
317
313
318
321
320
276
507
357
321
327
336
349
369
383
387
374
338
320
321
333
337
329
331
336
338
254
576
404
333
339
348
361
378
394
396
387
353
330
324
330
338
324
322
325
327
257
529
421
309
316
321
334
348
365
370
359
336
303
299
300
317
310
307
305
310
274
458
402
315
315
322
334
351
374
381
380
357
326
316
319
331
338
327
328
330
332
250
560
396
321
325
335
347
364
378
379
369
334
312
310
311
327
317
313
315
317
296
401
449
323
313
317
326
342
361
372
373
352
317
306
308
312
322
312
312
316
318
235
612
413
311
319
326
338
356
374
380
376
348
318
313
314
328
328
322
324
328
329
274
527
365
324
326
335
348
366
378
380
367
330
308
313
312
326
317
315
317
320
282
490
442
315
314
321
330
346
364
371
372
353
317
309
313
315
332
325
326
331
332
270
571
447
323
331
336
348
363
379
385
380
352
322
314
313
324
325
311
313
310
314
260
452
373
303
306
318
329
349
365
361
351
320
302
295
299
314
309
302
307
311
307
324
416
341
312
312
323
344
360
380
368
352
322
306
301
304
325
320
314
308
323
309
383
473
325
313
319
320
342
360
381
368
358
327
309
312
311
330
329
315
331
327
259
593
447
325
330
323
336
343
363
379
371
343
306
306
300
315
309
306
308
314
317
230
562
364
309
317
323
337
350
366
369
361
322
308
312
312
317
315
315
322
320
283
507
464
318
322
327
332
354
368
383
375
357
322
312
315
324
325
321
329
324
331
236
618
405
321
326
332
342
360
375
376
373
344
319
321
325
336
331
325
329
328
323
316
443
354
319
323
331
345
359
368
368
358
331
313
306
319
324
314
312
321
322
260
519
417
315
321
326
339
355
371
380
368
346
320
316
314
329
330
321
324
326
327
262
511
397
325
329
334
344
363
371
374
364
334
310
310
308
320
320
310
313
311
312
252
513
354
305
308
317
328
346
357
360
351
315
298
300
299
315
312
309
312
313
306
312
491
333
307
315
320
336
356
368
369
356
319
309
308
306
324
315
318
314
316
300
409
467
323
313
318
326
341
359
368
367
352
314
304
305
303
321
315
311
314
317
296
412
460
323
316
322
330
347
368
376
378
362
327
315
318
315
334
327
325
327
330
324
336
439
351
323
331
339
348
371
373
374
363
330
312
313
312
327
320
311
316
315
310
320
407
345
315
314
324
339
355
366
363
350
322
312
292
303
319
323
314
316
321
327
248
539
403
320
323
331
340
359
373
378
374
336
313
314
315
315
332
326
321
322
327
301
425
457
333
321
327
338
347
370
382
383
360
325
316
315
315
325
331
323
326
327
327
233
604
390
317
323
329
340
357
375
379
369
336
311
309
311
315
327
319
319
322
324
278
515
441
318
320
324
333
350
370
377
379
356
320
311
311
310
320
325
317
318
320
324
238
559
398
313
314
319
327
347
357
367
351
324
295
281
286
290
294
287
283
285
285
255
401
371
283
272
278
285
305
322
328
327
311
281
267
266
273
289
289
275
282
286
291
219
497
367
289
298
308
320
341
361
366
358
325
306
298
304
307
327
320
315
319
322
323
295
484
357
321
325
335
348
369
381
385
373
335
316
314
319
321
336
329
324
328
330
298
463
455
330
325
327
337
352
375
384
383
362
325
312
314
318
325
334
326
326
330
332
263
590
440
321
328
332
341
359
378
388
387
361
329
321
322
325
337
345
338
341
345
348
271
597
442
337
338
341
348
367
385
389
386
359
329
316
318
320
331
324
318
319
318
317
273
452
367
309
314
320
336
352
366
373
358
327
301
300
305
308
326
319
313
321
321
314
340
441
343
318
324
332
348
366
380
379
366
331
312
315
318
321
340
329
325
327
331
318
362
469
343
327
330
338
353
373
386
388
369
333
316
314
317
320
333
324
321
323
326
304
412
455
325
315
319
329
342
360
374
374
357
319
304
306
308
312
323
315
317
320
323
272
529
438
315
319
323
332
349
369
379
377
357
322
310
314
315
328
329
325
326
329
334
263
587
439
324
328
335
345
362
382
388
384
363
328
320
318
321
330
334
325
326
329
330
257
560
431
315
324
326
333
350
366
372
365
341
311
301
304
303
325
314
306
309
309
310
244
491
377
306
310
322
330
348
364
370
362
337
307
305
310
315
335
325
320
323
328
324
287
483
363
318
323
329
342
362
374
375
360
324
301
296
299
300
315
306
300
301
302
293
320
444
313
293
297
304
318
338
351
352
336
309
289
285
288
293
307
290
293
297
298
245
488
402
290
293
298
309
324
349
356
355
337
302
288
296
300
321
312
305
306
314
314
260
488
368
311
317
327
343
364
380
382
372
340
315
316
317
326
337
329
327
331
336
300
483
446
332
328
334
341
359
382
394
389
369
335
322
320
323
338
338
330
334
336
342
263
607
432
332
340
346
356
369
394
397
387
354
324
318
318
321
334
325
321
324
327
314
352
437
340
316
321
328
342
364
375
373
359
325
309
306
309
331
326
320
319
322
327
250
585
416
318
324
329
341
357
377
381
374
342
309
302
303
304
320
311
305
307
309
300
322
450
322
300
304
308
321
342
355
355
340
303
283
283
283
298
299
290
296
301
301
226
561
405
293
296
301
313
329
350
362
361
335
304
292
299
299
315
307
306
307
309
310
269
453
347
304
307
312
331
349
362
363
350
317
295
290
295
313
313
303
303
311
315
262
531
430
320
325
335
345
360
380
387
387
364
330
318
323
323
343
338
330
332
335
337
248
605
412
328
332
338
344
365
384
388
381
348
320
314
319
316
336
327
324
328
330
324
309
495
355
324
329
334
349
368
382
385
370
335
316
314
316
326
331
325
326
331
332
262
601
442
330
334
341
351
368
388
396
395
372
345
336
336
337
349
341
340
338
337
324
358
449
343
317
325
328
344
360
371
370
352
318
299
300
304
315
307
302
302
309
307
281
437
353
308
312
323
335
352
370
372
361
329
309
309
312
333
326
324
323
327
328
253
535
395
326
330
338
348
366
385
386
380
345
321
316
315
332
332
325
322
328
327
240
595
405
319
322
328
341
359
376
380
373
341
309
308
308
322
320
314
317
320
320
228
596
400
312
316
323
335
354
373
377
371
339
312
311
313
332
328
325
329
331
331
291
514
371
334
335
343
354
371
390
386
376
337
316
308
318
322
312
312
317
314
275
498
418
309
308
311
326
334
358
365
361
337
304
296
295
315
309
303
307
312
314
240
535
389
311
317
324
335
356
372
374
365
332
307
307
309
326
317
312
317
319
309
337
462
337
317
320
327
342
359
370
371
355
317
300
300
308
316
305
306
308
306
240
562
414
298
300
304
314
331
349
357
351
326
295
286
286
302
298
296
298
302
302
239
496
359
313
317
323
336
356
371
372
358
321
302
298
305
316
302
306
309
313
255
524
417
305
307
320
329
348
366
367
369
344
312
307
304
324
318
308
310
313
313
276
464
362
315
322
330
345
361
378
376
367
331
312
313
317
332
322
320
323
327
302
446
441
328
324
328
338
352
374
384
381
363
327
315
315
326
330
321
324
327
331
241
623
417
326
330
337
347
367
387
389
382
350
323
322
321
338
330
326
326
329
318
360
475
342
322
325
332
347
366
375
375
359
320
305
307
311
320
313
313
316
320
256
559
433
313
318
324
334
352
369
376
373
352
319
312
312
325
330
324
327
327
332
250
558
417
320
324
333
340
354
373
375
368
341
309
305
303
323
317
311
310
313
314
246
498
384
311
314
318
333
349
366
364
356
328
304
301
302
323
320
312
313
316
317
251
506
373
315
317
329
341
362
374
377
365
334
312
311
311
324
327
319
322
326
329
244
572
395
323
330
336
347
366
384
387
383
347
322
321
320
334
341
334
333
336
338
252
564
402
324
324
328
339
358
373
375
366
334
306
304
300
320
315
306
309
310
313
249
478
369
307
313
322
336
353
368
368
357
329
307
304
308
325
328
319
319
327
328
257
526
391
326
330
338
350
371
383
388
375
341
316
313
313
320
327
316
317
318
318
231
591
400
304
308
313
324
342
358
362
354
325
295
292
292
299
305
297
301
303
302
224
575
400
296
300
307
317
336
353
361
355
327
298
293
295
304
315
307
310
317
321
245
578
424
322
327
335
345
361
378
381
376
348
319
312
307
322
322
314
314
317
316
245
492
383
305
310
318
332
350
366
365
357
326
301
300
300
322
316
310
311
318
317
275
475
371
321
326
335
350
368
382
384
371
337
317
314
316
334
332
323
328
330
332
270
521
376
326
331
339
355
373
386
390
380
344
323
325
321
340
333
328
330
332
327
330
481
353
326
330
335
347
368
379
381
364
327
309
309
313
327
319
320
323
326
277
519
445
324
324
329
337
350
371
377
372
342
311
297
295
308
301
292
294
294
289
242
420
338
278
282
286
295
314
324
325
313
279
257
248
258
267
258
254
254
258
203
469
366
257
258
268
279
298
318
326
323
300
270
263
262
280
281
277
279
283
286
208
513
353
289
297
306
322
343
361
366
357
326
305
306
311
327
322
320
324
330
295
486
450
334
332
339
349
367
390
399
399
376
342
330
332
342
347
339
341
341
343
257
601
418
332
337
342
354
371
386
391
384
351
324
322
323
339
333
329
334
335
327
353
472
352
333
339
347
360
386
396
398
382
347
329
329
329
341
332
326
330
332
279
532
427
322
333
333
345
361
380
382
383
359
325
322
317
334
332
322
324
327
328
272
486
381
320
324
330
343
361
374
374
358
323
300
296
292
310
299
289
287
288
279
289
416
300
272
271
275
287
304
316
316
298
260
243
245
246
259
251
249
254
255
206
484
373
257
259
270
279
300
322
333
333
313
281
275
276
294
296
291
297
302
308
231
544
373
311
316
324
338
359
373
378
372
337
314
317
317
332
325
324
327
331
294
504
455
331
330
337
346
359
378
385
383
362
328
320
318
329
330
324
326
327
329
254
549
378
326
331
340
352
371
385
389
382
347
325
325
329
341
332
331
335
339
275
587
446
330
333
338
349
364
381
385
383
357
326
321
321
339
333
328
332
334
330
348
473
357
340
339
344
362
375
386
382
371
333
316
307
318
319
301
303
300
298
231
449
359
281
283
284
292
314
318
320
311
281
258
251
260
267
250
247
250
258
202
463
353
249
255
265
271
290
308
312
310
286
256
251
250
272
270
263
266
273
274
236
447
320
284
291
300
315
336
353
357
346
313
300
302
310
320
313
316
323
331
246
617
417
332
338
346
359
378
395
402
396
369
343
339
342
353
344
343
348
351
292
559
457
340
340
345
356
368
386
397
389
361
330
326
321
337
327
326
326
328
300
457
418
331
327
330
341
354
377
383
380
361
330
316
314
332
335
327
329
333
334
292
481
381
333
341
347
362
382
396
395
380
344
327
328
334
344
338
331
335
336
278
565
439
326
327
334
344
357
380
383
376
349
317
312
309
321
323
315
315
319
322
238
538
374
317
318
327
338
357
373
374
364
331
309
317
320
336
324
319
316
319
292
432
447
317
312
319
329
341
364
372
372
351
316
303
298
316
316
307
308
317
315
243
523
395
315
323
330
338
364
380
379
368
334
314
308
312
330
324
318
319
324
320
319
474
348
322
324
333
348
368
379
382
365
327
311
314
316
339
327
324
330
329
306
442
461
334
327
333
342
355
377
388
386
370
333
321
325
330
343
336
334
336
337
279
584
450
331
336
341
352
366
386
393
388
359
324
314
315
317
325
312
313
314
314
223
605
396
293
295
300
307
323
338
343
337
305
273
262
263
267
269
261
259
261
262
183
451
332
252
256
259
275
296
308
312
301
281
253
249
251
270
267
259
264
271
267
267
377
308
274
276
287
304
325
339
340
325
297
280
283
286
304
301
294
302
302
298
325
437
333
309
316
326
339
363
374
376
362
329
311
315
318
340
334
329
335
339
336
311
512
370
339
346
356
370
389
403
407
394
356
337
338
337
354
349
348
349
352
350
284
549
393
349
350
358
369
389
403
407
393
359
340
334
333
343
342
338
338
343
340
270
517
393
330
333
339
352
369
384
389
378
346
318
313
312
331
323
317
321
324
324
288
451
370
323
334
337
354
369
383
379
371
341
320
318
322
343
337
328
332
335
338
268
530
397
328
335
341
353
372
384
384
374
340
316
312
314
321
330
321
320
322
326
247
603
420
314
315
320
331
354
373
375
369
344
310
305
302
312
318
307
309
313
315
244
578
416
309
313
322
335
354
370
378
372
346
316
312
309
319
329
319
322
324
326
249
582
418
308
307
310
316
329
342
342
332
304
270
254
247
250
246
233
225
228
225
139
440
290
196
200
200
213
226
244
241
232
203
177
174
176
195
183
181
182
189
178
269
305
216
210
219
237
258
288
305
307
293
267
258
268
283
298
291
301
308
318
245
602
425
331
338
349
361
386
403
410
406
377
348
349
351
368
357
354
357
357
340
450
486
365
353
359
364
380
402
411
410
390
353
340
339
356
353
345
348
348
349
272
577
401
343
347
353
368
388
402
404
393
358
335
335
342
351
342
342
349
349
274
637
451
342
349
353
362
380
399
405
401
373
339
338
338
353
342
340
344
348
332
418
486
359
350
357
364
373
393
400
401
383
349
335
336
349
346
339
340
342
341
266
533
410
330
335
343
359
375
389
389
386
357
331
331
330
348
333
330
329
335
297
509
434
332
330
336
345
360
382
387
381
359
328
314
317
326
328
316
320
320
322
238
588
400
317
320
328
341
357
373
378
371
338
312
310
311
330
321
317
320
322
318
298
487
349
318
323
332
346
365
379
378
367
330
315
317
319
332
325
321
324
329
287
516
445
324
324
329
338
353
373
382
379
358
322
311
311
314
322
310
309
306
304
224
582
394
277
277
279
282
296
311
311
303
273
237
227
223
229
230
222
221
224
227
131
477
298
214
216
222
237
253
269
276
268
241
217
217
214
235
231
232
237
246
246
246
372
296
263
276
288
306
332
343
345
338
310
292
292
298
321
310
311
312
319
302
441
434
338
332
339
349
366
386
394
395
373
342
329
335
336
355
344
340
342
347
309
516
457
343
341
346
356
372
392
400
399
378
345
334
337
340
355
345
343
349
350
293
586
462
344
348
355
367
380
405
409
405
381
349
339
340
345
352
346
344
348
350
274
633
451
339
345
348
358
374
389
397
391
363
332
324
327
323
334
324
320
319
320
258
523
416
300
301
300
309
324
339
341
335
312
276
266
265
276
278
268
267
274
275
201
493
362
268
278
286
298
315
336
336
333
308
281
276
282
296
304
296
295
306
312
237
551
398
310
322
329
342
363
382
389
382
351
328
323
327
335
351
338
339
345
348
286
576
456
342
347
353
363
381
404
411
407
383
351
350
353
352
366
360
348
356
355
325
486
459
351
345
351
358
368
388
400
393
369
333
316
309
316
327
313
307
307
308
278
425
392
300
291
296
302
318
338
348
344
320
289
272
272
274
294
285
280
281
285
280
302
421
307
284
291
298
315
338
355
356
343
310
292
294
297
314
316
308
315
317
320
262
511
367
322
326
336
350
369
384
389
376
344
322
319
323
332
338
328
331
333
338
255
619
419
332
340
347
357
376
397
398
392
363
330
327
331
333
344
335
332
333
332
285
511
437
314
312
314
321
334
350
355
353
328
287
274
272
272
284
279
269
272
274
270
207
466
314
260
268
274
290
310
321
331
321
285
265
264
269
276
289
287
283
292
295
257
462
408
303
304
313
324
345
362
368
370
353
320
304
304
307
321
323
311
313
320
319
262
473
379
314
322
326
344
362
380
373
369
340
313
311
310
322
336
318
321
322
326
270
542
429
326
332
341
352
370
389
397
390
370
337
327
327
331
347
345
338
339
342
344
274
546
393
340
343
351
362
384
398
398
394
356
331
330
333
336
342
334
334
337
342
276
584
440
333
337
342
354
372
391
398
398
374
341
334
336
336
358
351
346
348
348
324
442
465
346
333
335
337
350
367
370
373
352
323
305
305
313
321
316
309
314
315
287
462
423
328
323
333
340
356
378
381
380
359
325
310
313
314
331
323
315
317
319
312
305
462
341
311
315
321
334
356
370
370
355
318
302
299
299
316
309
304
303
307
305
271
484
347
304
309
309
335
351
365
370
354
330
300
309
305
317
309
316
316
323
311
353
472
344
320
327
336
350
373
386
386
373
333
316
317
317
332
323
321
325
329
292
443
461
317
315
315
321
335
347
355
354
330
289
266
265
268
273
259
263
263
256
171
534
353
232
237
242
251
265
284
287
284
260
225
220
219
236
238
231
238
249
242
223
431
286
260
270
288
299
326
346
354
351
322
298
307
336
321
326
327
341
347
271
658
463
348
362
374
372
402
428
429
428
412
368
361
368
385
369
371
379
371
349
489
494
378
370
373
378
389
400
413
400
385
354
335
333
343
334
327
327
332
326
343
403
359
323
325
340
347
366
376
374
369
336
322
320
335
334
326
332
337
341
279
512
407
338
343
349
364
380
399
394
391
358
338
336
338
353
343
340
337
340
289
545
451
333
334
338
347
364
381
386
385
361
327
321
321
336
327
321
328
327
314
393
470
336
327
332
338
354
371
381
383
366
328
317
314
331
323
321
324
327
322
344
471
349
329
335
344
358
379
388
388
375
341
328
324
339
337
333
339
341
337
295
483
375
334
336
342
354
369
383
380
364
330
312
310
326
319
311
312
313
318
268
432
366
307
323
328
339
359
372
372
358
330
315
308
319
323
315
312
311
308
230
537
384
289
297
298
309
322
335
334
320
286
259
251
250
266
249
242
238
240
205
377
343
229
223
226
233
247
265
272
269
245
213
201
203
220
219
214
214
222
225
173
419
275
235
247
258
274
299
319
327
321
290
279
285
294
313
310
315
323
331
264
617
449
342
353
362
377
399
422
432
432
406
376
373
374
390
391
387
392
395
394
349
596
425
390
392
395
405
425
437
438
425
385
363
361
357
374
367
361
364
364
334
484
488
357
354
359
369
380
393
402
399
380
344
330
332
329
343
336
331
336
333
272
545
438
324
327
332
341
355
375
373
371
343
316
303
305
321
318
310
312
318
319
259
475
389
315
318
332
343
357
368
367
357
326
309
300
302
316
318
309
310
313
316
256
493
376
312
319
329
342
359
375
373
365
335
312
308
312
322
329
322
323
326
330
242
599
401
323
326
336
348
369
386
392
383
352
326
323
326
338
342
333
333
336
335
243
616
397
325
329
339
348
371
380
381
376
339
313
309
309
317
322
315
317
320
322
236
580
375
317
322
328
340
360
374
376
369
337
311
309
311
325
325
320
323
326
324
274
529
361
324
329
338
351
370
386
390
378
341
320
320
322
338
336
331
333
337
327
363
496
351
335
339
345
359
376
385
389
374
343
321
321
318
332
329
324
326
329
309
410
421
334
322
326
336
347
364
371
364
351
319
300
294
297
311
295
293
293
289
246
470
382
283
276
285
288
303
321
326
321
299
270
256
258
264
276
264
264
268
266
219
471
377
267
269
275
286
300
324
333
330
310
279
270
278
284
301
294
290
297
303
260
503
421
308
312
320
331
348
373
385
383
363
330
326
330
335
353
342
341
348
351
300
570
468
350
357
362
373
391
413
421
415
391
358
349
350
354
365
359
352
354
350
297
533
448
330
326
328
331
346
365
369
362
339
301
292
286
295
301
287
286
287
292
223
516
385
280
287
292
301
323
337
341
334
314
289
284
292
307
316
308
313
317
326
246
578
418
322
331
342
353
374
393
399
392
360
335
329
333
342
349
341
342
344
346
262
631
425
332
337
342
354
370
389
392
386
355
328
317
316
331
332
327
330
332
337
259
573
401
330
336
343
354
374
391
394
383
353
326
325
324
340
337
332
334
337
335
290
551
368
334
339
346
359
379
395
399
386
351
332
333
333
347
338
336
337
340
280
607
464
340
339
336
344
359
380
386
380
357
320
315
311
325
319
312
314
315
308
294
500
332
305
309
315
325
346
355
360
345
311
292
294
299
305
297
299
304
306
216
587
378
305
313
320
334
352
368
371
369
338
315
313
321
331
321
324
330
333
258
566
432
330
336
340
349
364
381
379
372
350
322
309
317
325
313
315
314
319
254
522
412
315
317
324
333
352
370
369
365
345
325
312
322
331
320
317
322
326
267
556
428
325
332
340
350
368
385
391
384
360
333
331
329
347
339
335
337
336
314
446
449
341
336
342
349
363
385
394
389
370
338
327
328
339
334
328
328
329
325
266
524
359
316
319
324
336
352
366
363
348
309
290
291
292
304
292
292
294
298
224
571
393
286
292
298
307
327
347
353
351
326
297
292
292
308
305
300
304
306
306
249
506
349
308
313
320
333
353
367
367
355
321
302
302
303
320
311
308
312
314
281
461
432
313
309
315
325
342
357
367
365
348
315
303
306
307
326
319
318
321
324
300
436
449
331
324
330
341
356
373
384
384
370
336
325
330
327
347
344
341
344
348
342
369
482
368
348
352
360
374
391
401
397
386
350
331
328
326
342
340
325
329
331
317
390
413
346
323
330
342
352
375
381
381
363
335
316
316
317
334
332
325
325
332
332
301
466
376
331
339
346
360
379
392
391
379
346
327
323
328
335
347
335
335
335
337
275
578
437
327
329
332
341
357
377
383
378
353
320
309
308
309
327
320
315
317
320
319
264
509
358
313
318
327
340
361
378
380
373
336
316
312
318
316
335
324
321
323
326
296
461
427
329
325
329
338
358
372
383
385
359
328
317
313
318
336
328
320
325
329
330
264
508
388
319
329
331
344
369
384
383
369
337
313
310
312
316
335
323
316
321
321
318
277
487
360
318
323
329
341
363
379
382
366
330
309
304
308
311
330
325
319
321
325
325
275
518
365
325
331
339
354
374
392
395
383
345
322
320
324
325
344
340
335
339
341
340
270
555
382
338
346
350
363
381
399
401
392
354
330
327
324
325
337
334
322
324
323
320
246
499
367
296
300
302
310
327
340
341
326
291
263
254
255
255
270
270
250
249
256
253
188
437
303
241
247
253
266
285
299
299
289
251
227
223
221
230
239
244
229
234
236
239
157
513
327
236
244
254
266
289
310
319
318
292
263
263
266
277
287
303
297
301
308
315
269
528
432
322
326
332
346
364
391
406
408
388
355
341
345
353
355
375
369
367
371
376
377
339
557
410
377
386
387
401
423
438
437
423
392
361
353
353
351
369
365
349
351
355
355
279
578
424
344
350
352
365
385
401
405
397
371
343
330
333
340
358
355
348
346
350
354
278
606
430
346
350
355
365
385
407
409
404
373
340
333
333
339
346
355
344
343
343
347
281
598
440
334
338
339
348
365
385
393
389
365
329
315
316
319
324
333
324
321
325
329
273
552
432
319
320
324
335
350
369
380
377
359
319
309
310
312
314
328
319
319
323
326
288
502
445
323
323
330
338
354
374
386
387
370
330
316
317
322
323
333
326
323
328
330
290
508
447
322
321
327
335
351
370
380
383
367
331
318
320
324
324
340
333
334
337
339
312
447
441
333
332
331
342
351
375
381
382
370
335
315
312
316
327
331
315
318
324
324
260
541
413
317
325
329
345
362
383
387
384
361
329
321
323
324
345
336
327
329
332
331
263
527
393
325
332
336
347
368
382
382
376
343
316
309
313
315
333
320
316
318
321
318
287
492
353
315
318
326
338
358
373
375
365
333
309
310
315
320
330
323
323
329
333
284
543
448
329
329
333
343
359
378
388
385
365
330
318
321
321
338
333
328
331
333
335
249
604
386
326
327
333
342
358
372
372
362
328
297
288
288
288
298
285
280
283
281
251
403
397
270
261
263
269
280
297
306
305
292
256
237
237
238
250
255
249
253
258
260
188
500
355
256
264
270
282
299
318
323
321
303
270
262
268
278
290
278
278
283
285
275
368
374
312
297
309
315
335
355
368
366
357
333
315
317
321
338
333
329
331
336
338
274
557
415
341
343
353
367
387
403
406
399
373
346
340
343
347
364
352
351
354
358
335
462
467
359
351
353
362
376
395
403
401
383
350
333
330
330
348
339
332
335
338
338
262
564
389
332
338
344
351
373
389
392
382
349
325
323
325
343
340
333
336
338
342
249
632
413
332
336
343
357
376
394
397
390
359
328
325
325
343
337
337
340
342
344
263
566
403
344
345
352
363
375
392
395
382
347
327
321
324
335
321
322
319
325
301
395
397
320
303
307
314
327
342
348
343
326
297
272
272
284
280
266
269
267
270
200
502
356
255
262
266
277
293
309
315
307
283
253
249
249
273
262
259
261
264
270
209
457
327
273
278
288
300
322
339
342
335
301
283
286
290
307
300
301
305
307
294
391
438
328
317
324
335
351
373
386
387
370
336
323
326
336
346
339
340
343
348
303
547
462
347
351
359
367
385
405
414
411
391
355
345
347
354
359
350
353
356
358
299
592
470
352
355
360
368
386
404
411
406
383
352
339
334
349
352
339
343
342
343
276
570
432
333
339
344
356
373
386
394
385
360
333
326
327
346
340
333
332
333
336
263
556
410
330
334
342
356
375
391
392
386
354
327
323
323
339
340
328
329
332
333
254
609
421
323
327
332
341
359
375
380
375
344
314
305
308
317
325
315
315
320
322
254
579
422
314
316
323
332
350
370
374
373
349
319
306
310
317
328
320
322
327
330
269
566
441
328
334
339
348
366
387
389
391
366
335
324
324
335
342
331
331
335
334
272
557
428
324
322
329
341
353
369
375
369
349
316
308
308
324
329
317
314
314
318
262
543
410
311
317
323
333
354
374
382
376
351
321
312
315
327
336
327
324
328
333
286
533
441
335
339
342
351
369
390
399
396
374
340
326
329
330
345
337
331
332
337
306
459
440
332
323
330
337
356
372
386
386
361
325
309
313
315
329
319
323
325
327
291
468
430
318
316
322
333
345
365
376
373
356
321
307
307
316
327
317
320
324
327
253
586
436
327
330
349
348
359
380
407
372
361
324
323
321
338
329
329
336
334
335
258
575
411
338
343
349
361
377
381
386
374
352
316
311
314
319
307
298
300
296
242
461
382
277
270
267
273
283
292
297
289
270
233
218
216
230
216
208
213
206
201
207
313
237
197
206
216
232
250
255
255
243
213
194
195
209
221
207
211
209
216
146
477
335
225
231
240
257
276
300
310
310
288
262
265
269
293
287
289
292
302
295
351
456
333
320
329
337
354
373
388
391
380
344
333
335
351
351
348
352
358
362
275
621
426
360
367
377
386
408
417
420
419
381
355
354
357
367
361
361
362
365
296
629
469
356
359
364
373
387
406
410
407
384
350
343
345
361
354
354
353
355
344
401
497
362
354
361
368
383
400
407
408
385
358
340
334
346
347
338
339
341
344
284
498
417
336
338
345
352
367
378
372
368
340
311
304
310
324
303
299
293
297
261
434
381
289
283
288
292
307
322
326
326
303
271
256
260
264
275
268
268
269
269
200
530
372
264
271
279
292
311
330
338
338
318
289
286
289
305
312
308
313
320
327
248
568
403
337
343
351
365
384
402
416
398
368
345
343
344
356
349
340
348
348
329
397
437
350
328
336
346
362
384
397
395
382
353
340
345
364
361
356
358
354
349
270
576
432
337
342
349
364
386
409
409
406
374
355
351
351
361
345
342
343
343
327
395
462
354
331
342
356
374
393
406
409
386
342
327
331
325
325
318
319
318
317
246
570
425
327
337
347
355
371
384
389
376
352
320
317
317
334
328
322
324
329
302
402
486
321
316
320
322
340
363
370
371
351
281
314
313
332
331
329
326
337
322
339
518
332
323
328
345
359
379
388
388
370
338
322
318
334
326
324
325
327
317
370
428
342
328
326
338
347
367
379
376
359
327
311
311
323
321
315
317
318
299
381
448
324
319
320
329
343
364
370
370
355
324
314
309
329
323
322
323
325
305
415
454
340
329
338
343
361
379
384
383
363
329
316
313
332
326
323
324
327
287
471
447
320
316
319
328
345
360
365
360
337
302
293
290
305
297
289
289
294
237
488
404
283
285
273
283
296
309
312
307
276
246
237
241
249
238
235
237
239
162
461
329
229
234
242
253
269
283
287
282
252
227
224
232
244
237
240
247
252
184
467
318
257
267
281
287
309
326
331
325
295
281
282
296
298
300
300
308
302
352
454
337
325
331
340
357
380
392
388
376
343
335
334
354
348
348
353
360
305
576
485
364
369
381
394
408
429
435
423
397
363
357
361
370
360
359
356
358
298
497
431
354
356
365
372
394
408
403
388
361
342
337
353
356
345
345
347
346
309
484
401
345
354
358
376
393
405
405
391
353
337
335
340
352
341
342
347
349
261
585
420
336
342
348
362
383
401
402
391
354
332
333
334
350
344
343
344
348
263
618
426
337
342
349
358
375
392
396
386
350
323
321
321
339
328
321
323
325
270
543
429
316
318
324
333
349
369
379
375
347
311
305
304
315
317
311
314
315
305
343
457
332
315
318
327
341
363
375
377
358
322
309
310
311
327
320
319
322
325
253
595
426
317
322
326
335
351
368
374
371
342
310
303
308
316
325
318
321
324
321
283
487
360
325
330
337
350
369
381
381
371
341
324
325
322
337
329
323
327
330
276
501
406
315
314
317
325
339
351
356
353
326
295
287
289
298
302
293
285
296
296
250
424
349
293
297
304
316
336
345
342
329
297
275
269
271
285
283
273
272
271
262
283
410
283
255
256
262
276
295
305
305
288
248
235
235
237
254
249
243
250
252
226
392
384
267
266
272
283
301
322
336
341
323
293
284
290
294
314
308
309
315
320
256
566
439
324
335
337
351
369
386
397
393
365
338
338
330
348
354
342
342
345
350
291
490
400
338
348
352
363
382
394
393
381
353
332
328
328
352
345
337
335
342
328
416
450
355
340
343
355
367
387
397
396
377
342
331
334
331
350
342
333
337
340
296
527
453
331
331
333
341
357
375
382
380
357
322
313
315
316
327
319
318
321
322
233
632
407
315
318
325
336
356
373
379
372
342
312
311
310
324
322
318
319
323
319
336
490
345
324
329
338
352
372
384
387
374
337
321
323
331
344
335
336
340
347
279
583
437
342
346
354
363
379
394
399
397
360
332
323
315
330
324
309
314
311
293
403
386
317
306
309
317
327
347
351
347
332
303
287
289
304
303
296
292
297
297
254
449
360
302
309
320
335
356
369
372
359
330
311
314
318
334
325
324
325
329
269
570
431
325
332
334
340
357
377
381
375
348
319
313
314
334
325
320
322
323
292
483
442
324
323
325
334
352
372
379
379
357
321
316
315
334
323
321
323
327
303
459
447
329
323
330
339
355
377
386
386
364
327
320
319
337
328
323
327
329
303
462
445
330
321
328
333
348
369
378
376
357
320
313
309
325
315
312
318
320
294
456
432
323
318
321
331
343
366
371
372
351
316
308
307
325
316
313
317
319
285
477
436
318
314
316
323
333
350
356
350
327
294
286
282
300
286
282
279
276
244
394
377
269
262
266
270
284
302
304
303
281
249
241
240
260
247
242
251
250
219
416
358
261
260
267
283
302
325
334
333
314
288
285
288
311
309
307
312
319
308
387
441
347
331
339
350
367
386
397
396
381
348
336
340
352
358
352
351
353
354
275
587
409
348
352
359
371
389
404
405
394
357
336
335
339
353
344
343
347
348
271
638
446
340
344
349
359
376
393
397
393
363
334
330
329
344
341
336
338
340
328
366
491
355
340
345
354
369
386
396
397
381
345
330
333
336
347
338
339
342
346
260
643
432
337
340
343
353
368
385
389
383
351
323
320
320
333
336
328
331
332
328
298
500
359
328
330
339
352
370
380
380
368
336
317
320
319
336
332
326
329
331
316
401
454
343
333
338
342
355
374
379
380
362
329
312
311
309
330
319
311
313
311
288
421
397
309
299
301
311
324
341
342
340
323
296
282
283
283
303
294
289
290
292
263
437
395
302
298
305
315
333
351
357
354
334
304
294
298
301
321
317
311
313
316
306
344
462
338
318
324
335
350
370
379
380
364
330
316
319
321
338
335
329
331
335
330
318
505
357
329
334
341
353
372
384
383
366
329
313
313
317
327
334
323
326
330
332
239
599
387
323
327
336
349
366
381
384
377
343
320
317
319
328
336
329
330
335
336
247
610
400
332
339
347
358
374
388
389
384
352
328
324
328
336
344
339
339
346
350
260
595
424
332
334
336
345
365
377
375
371
339
313
304
305
318
327
312
309
314
316
235
524
396
305
310
318
331
349
361
362
355
326
303
300
306
314
321
311
312
317
318
247
573
421
315
321
330
341
358
378
380
374
347
319
317
321
323
342
333
330
331
335
301
486
454
333
328
333
344
358
376
383
378
361
324
316
318
318
339
328
325
328
332
315
385
471
341
326
329
338
351
368
379
376
358
328
312
317
317
335
333
328
330
333
329
315
476
358
325
325
336
346
365
377
374
356
332
308
309
310
329
321
310
313
316
308
321
439
344
312
319
327
340
362
371
369
353
322
307
305
309
329
326
320
322
325
323
292
490
362
325
328
336
351
371
385
383
367
331
314
318
319
338
341
336
338
343
345
275
551
394
345
345
356
362
380
393
395
381
346
324
326
321
336
334
327
323
329
329
265
494
374
311
316
326
334
356
367
369
351
321
293
294
296
310
307
292
297
300
303
249
485
367
310
317
333
346
364
379
378
367
328
305
304
311
318
317
314
311
310
311
216
577
338
335
290
303
306
293
407
392
401
364
334
332
334
329
341
310
303
303
292
298
424
313
301
305
304
313
334
342
345
330
290
281
273
280
297
288
293
296
303
253
482
406
306
311
318
329
349
365
372
367
351
317
316
312
327
329
320
325
328
326
284
453
366
322
324
329
337
352
362
359
344
309
287
281
284
295
283
280
276
277
211
470
376
260
265
268
278
291
310
313
309
285
254
251
248
265
263
261
259
260
250
341
369
279
268
276
281
298
316
326
321
303
269
256
257
274
278
268
271
274
271
237
391
313
272
273
280
294
314
327
328
313
278
260
256
270
279
270
269
274
276
205
467
359
279
286
290
308
331
350
356
347
319
295
293
296
315
310
311
320
322
285
483
430
328
333
337
347
365
388
395
392
368
341
331
331
350
355
342
347
351
348
343
472
382
351
360
362
378
401
414
419
401
367
352
352
357
372
361
362
364
358
299
555
448
353
366
367
375
396
414
415
411
379
347
338
338
356
350
342
343
348
333
416
432
365
345
347
351
365
382
389
377
355
317
302
294
288
303
289
279
275
274
215
475
371
249
249
249
256
272
292
299
291
262
229
223
227
235
244
233
236
242
243
155
509
322
245
250
261
274
298
320
327
322
290
269
272
274
295
295
295
302
308
296
372
460
332
321
329
338
354
379
390
394
379
343
330
337
340
357
351
352
357
362
286
651
463
360
366
371
382
398
419
429
423
392
362
354
352
361
357
348
349
349
345
312
512
370
333
334
340
352
369
381
381
367
328
308
310
312
328
320
314
320
321
284
486
441
319
318
324
334
351
369
377
375
356
325
312
312
316
330
324
326
334
340
266
559
429
334
339
341
353
372
389
382
381
351
322
316
312
329
320
315
311
315
302
387
394
323
306
311
318
338
352
366
359
346
313
300
303
311
322
305
308
313
313
251
548
410
318
329
336
345
361
387
378
388
345
320
318
317
332
337
328
330
335
334
264
548
388
328
335
342
358
382
398
397
387
350
325
325
325
344
335
330
331
334
292
516
451
330
329
331
339
354
375
382
379
357
320
310
309
320
321
314
317
321
319
252
535
364
318
321
328
340
360
372
376
366
331
311
317
315
330
324
323
326
328
269
581
441
323
325
332
344
360
378
385
384
363
330
324
322
335
338
331
334
334
331
301
458
369
329
333
342
347
366
377
373
358
331
303
305
307
317
303
298
304
309
249
507
400
307
313
314
326
344
356
365
352
332
307
299
300
318
324
313
315
317
319
266
473
377
322
329
339
349
369
383
384
371
338
314
311
314
332
328
320
323
322
318
310
470
346
313
318
324
339
358
368
370
355
319
301
305
302
321
313
310
312
315
277
488
435
315
314
320
328
344
366
372
372
349
316
305
310
315
325
317
319
322
324
236
629
413
317
324
330
342
359
377
383
377
344
314
310
310
324
324
318
320
321
320
254
541
366
321
324
331
344
363
378
378
368
336
315
317
315
335
330
322
323
327
309
397
464
333
323
327
335
350
367
380
378
363
327
312
315
318
332
324
323
326
328
267
530
433
320
324
329
335
350
367
365
357
331
297
284
280
289
291
274
272
273
272
212
389
323
250
257
262
270
290
302
296
289
262
240
238
237
255
246
239
246
247
245
249
356
284
252
257
264
281
300
311
310
298
265
251
250
249
273
268
261
268
268
271
246
437
314
280
282
289
309
332
344
345
337
308
292
294
296
316
313
309
313
319
315
324
474
352
328
332
342
358
379
391
394
380
347
332
334
333
354
350
349
356
358
351
358
487
385
360
361
373
383
405
419
421
401
373
353
348
355
374
360
356
357
361
342
436
448
368
359
358
369
390
403
416
412
393
360
346
348
346
366
356
348
349
353
323
457
458
353
344
347
358
366
385
395
393
375
338
324
326
326
345
335
328
332
334
312
426
452
344
332
333
344
359
379
390
390
373
339
329
331
332
352
345
341
346
353
335
425
475
350
340
339
347
357
374
383
383
358
327
308
305
309
320
312
304
305
307
275
474
418
313
309
318
324
342
365
373
365
346
310
300
300
306
322
308
309
310
315
279
502
428
319
318
325
335
351
369
374
373
345
311
300
301
300
316
304
300
298
296
261
448
417
291
286
288
297
312
328
332
331
305
263
253
252
246
252
246
230
245
278
178
556
388
274
280
288
295
310
328
337
338
313
283
280
282
299
302
293
298
301
309
245
465
361
306
315
327
342
365
378
383
373
345
325
325
330
348
341
338
341
345
306
514
467
348
347
358
363
381
394
400
391
370
338
329
328
346
341
335
334
338
341
286
497
398
339
343
353
370
384
394
394
378
353
328
329
329
344
328
326
335
337
283
562
454
344
353
359
373
389
407
410
405
403
351
345
353
352
345
332
327
321
321
260
479
367
314
321
326
347
367
385
382
361
325
300
299
300
323
314
327
323
309
242
547
392
278
293
289
296
318
340
344
338
298
272
268
290
294
279
275
275
295
228
529
378
292
302
305
313
334
352
355
345
339
310
297
284
296
326
285
324
310
241
515
459
380
374
344
374
438
431
419
406
395
352
330
327
327
328
306
315
317
317
315
446
338
319
320
327
336
358
372
369
352
317
302
294
311
313
310
313
320
318
283
461
371
326
329
347
349
381
390
394
373
337
318
321
323
330
324
323
320
314
243
484
368
299
298
300
311
326
336
333
316
278
253
243
245
260
246
241
241
238
146
505
327
229
235
241
257
277
295
303
297
265
241
242
246
268
265
266
273
281
215
538
411
295
303
317
334
357
374
390
386
357
328
333
333
351
355
348
352
361
314
542
487
362
355
369
376
388
409
418
414
386
347
339
337
348
355
345
349
345
332
395
478
349
335
338
348
363
377
384
389
367
333
326
316
326
337
328
332
333
334
303
461
369
336
325
334
340
358
373
366
356
324
310
310
319
325
319
318
320
327
263
486
392
321
330
334
350
367
381
378
369
337
319
319
319
337
334
327
333
337
284
552
450
328
333
338
349
366
384
390
386
360
328
318
320
328
341
329
331
336
333
294
506
376
333
340
348
362
382
394
395
381
341
323
324
322
344
335
330
330
333
264
585
440
323
326
332
341
360
376
381
377
346
313
305
307
314
320
314
311
315
304
306
446
329
301
304
309
323
342
344
346
313
277
259
254
258
275
249
247
249
247
172
458
329
240
248
256
268
289
307
306
296
268
244
245
250
271
269
267
270
276
243
427
394
285
282
290
302
318
346
352
348
327
298
291
299
304
322
315
315
321
326
247
550
385
326
332
341
355
377
395
390
377
344
326
329
336
354
344
345
346
352
287
589
458
341
347
351
363
385
401
408
404
373
344
339
339
353
354
344
344
348
340
396
470
364
347
349
356
372
393
399
397
377
342
328
330
330
344
335
334
338
338
255
572
406
334
337
346
357
375
389
390
379
344
325
321
322
341
334
330
335
337
268
585
435
326
335
345
356
382
400
386
388
360
331
326
324
348
331
338
339
329
276
516
452
330
336
337
347
358
375
378
372
349
318
310
309
326
327
322
326
328
310
421
453
331
328
333
339
353
364
373
371
345
318
308
304
317
315
305
305
310
292
401
395
322
314
323
335
348
366
371
371
352
324
312
315
329
333
324
324
327
320
313
467
350
321
324
332
343
364
376
374
359
323
310
308
319
326
319
323
328
325
270
505
364
328
333
339
352
371
383
384
364
334
318
316
323
326
318
322
325
323
290
490
354
322
325
333
345
359
374
368
351
318
303
300
313
314
305
309
312
299
321
462
324
305
310
319
332
350
359
358
342
302
289
286
302
299
293
296
296
278
377
414
298
290
293
303
309
321
328
326
298
263
256
244
262
251
243
247
250
209
402
338
237
236
247
250
267
283
292
285
271
243
244
246
269
260
260
265
273
237
453
386
290
294
299
316
338
359
367
363
341
316
310
319
335
338
332
333
341
332
379
480
363
350
357
366
381
397
404
406
386
348
340
343
359
359
353
353
360
354
355
512
387
359
366
371
385
402
416
417
395
357
345
347
354
357
348
350
350
352
311
531
383
344
350
355
371
387
401
398
381
344
334
332
348
349
340
344
349
346
334
499
378
345
350
356
370
387
394
390
371
335
321
318
329
328
320
319
321
309
347
444
328
309
312
319
329
348
355
350
329
302
294
283
299
295
294
289
291
274
354
387
296
285
287
296
309
326
336
336
304
272
266
262
279
274
265
272
275
250
406
377
288
288
298
311
330
355
358
356
334
308
302
304
327
324
320
323
329
316
392
456
346
333
336
350
366
386
399
394
372
337
331
328
347
347
343
341
344
337
347
486
360
333
339
346
362
384
394
392
371
335
324
324
342
341
336
338
343
338
345
476
365
341
342
354
368
389
396
395
377
343
331
329
345
346
343
342
341
349
292
502
387
339
342
346
357
378
383
383
369
333
321
312
329
331
319
320
322
319
266
456
368
312
317
324
338
360
367
366
352
320
305
304
313
324
318
316
319
324
243
563
400
315
323
328
340
361
374
376
363
332
309
310
313
332
320
319
324
325
256
587
434
321
325
332
343
359
378
381
378
344
317
320
315
335
325
321
325
323
275
521
440
313
316
319
329
348
366
371
366
339
310
305
302
321
315
311
316
317
300
401
449
329
319
324
331
347
368
377
376
351
315
308
309
323
327
321
321
327
325
300
489
359
328
332
341
358
376
388
386
366
332
319
318
327
333
323
323
327
326
270
513
367
319
323
328
343
361
372
369
351
315
300
300
309
314
307
309
310
310
246
493
360
311
315
324
337
357
369
371
357
326
310
308
319
320
316
315
319
321
266
452
369
314
318
330
344
362
369
369
350
318
304
294
314
316
308
308
311
312
277
452
366
312
317
326
342
359
369
367
350
318
301
305
313
325
316
315
318
323
233
583
398
316
322
331
344
362
378
377
368
333
313
317
323
334
325
327
330
334
242
625
411
328
336
344
355
377
391
394
379
343
324
324
332
336
328
331
332
334
240
611
399
324
328
336
347
366
377
378
364
329
308
310
317
323
316
317
322
323
230
589
382
314
321
331
344
364
374
377
364
331
312
315
320
331
323
326
333
337
249
653
432
334
342
351
363
379
393
395
387
356
332
330
331
350
341
336
339
342
310
490
470
336
334
337
346
359
373
380
378
355
321
312
314
321
330
320
322
324
323
242
566
380
318
322
329
343
361
370
372
362
327
309
311
310
329
324
319
323
324
290
501
451
322
321
327
338
353
369
375
372
352
320
312
315
316
332
321
322
322
323
243
621
422
310
316
322
333
347
361
364
360
336
310
309
309
315
327
318
322
327
330
245
570
411
326
330
337
348
363
374
375
371
344
321
322
325
336
341
329
331
335
337
280
473
394
330
337
342
356
367
378
379
366
339
314
314
309
326
321
317
313
312
308
313
397
340
308
313
326
337
357
365
361
347
317
305
306
307
328
324
317
318
319
314
330
444
346
320
323
335
346
365
375
374
358
327
315
319
321
339
333
326
330
335
323
383
467
349
332
336
346
360
376
385
382
362
327
314
316
317
332
324
320
324
325
264
572
431
317
320
326
336
353
373
378
371
343
313
310
312
326
326
320
325
328
327
252
560
379
326
332
338
352
372
389
392
381
346
329
332
332
348
344
341
348
351
318
490
466
349
348
349
358
370
391
394
387
360
327
319
314
330
329
318
316
319
329
266
464
378
311
318
325
335
349
367
366
355
327
313
312
316
336
329
324
323
328
295
482
436
329
326
333
343
360
381
391
387
357
326
317
324
328
341
332
328
331
332
265
603
432
323
327
334
345
363
383
388
381
348
319
311
312
325
327
318
318
319
323
239
558
381
314
318
324
333
357
372
374
360
324
303
303
304
324
317
314
317
320
309
352
462
336
316
321
332
346
366
380
380
359
328
318
322
321
340
335
332
337
342
309
480
461
336
333
339
345
356
377
386
378
354
320
309
306
316
323
317
312
309
318
251
540
414
307
309
316
327
346
362
368
360
329
307
303
304
320
324
318
322
321
327
251
580
420
325
330
337
348
367
386
388
380
348
325
320
323
333
344
330
330
332
337
269
591
441
325
328
331
341
355
375
381
374
346
318
312
316
317
333
325
322
326
327
300
456
455
327
325
327
334
348
369
380
380
357
321
311
312
316
329
329
321
327
329
332
245
575
392
327
332
340
351
370
387
392
384
350
327
328
328
332
345
338
336
337
337
285
536
449
323
323
327
336
350
367
375
372
348
313
303
300
299
314
314
306
309
310
311
226
550
371
305
310
316
329
346
362
365
358
328
304
303
305
307
326
323
317
319
319
305
390
434
329
314
318
327
339
361
368
366
348
313
300
300
297
315
309
298
299
300
302
239
456
362
295
305
315
332
354
366
366
355
325
304
303
310
314
329
320
318
320
326
287
478
435
322
320
323
333
349
368
377
376
356
326
315
316
320
337
335
325
331
334
336
255
564
389
327
332
340
350
370
386
388
374
340
315
316
317
328
331
326
326
328
329
237
631
418
315
323
329
341
357
373
377
369
337
312
308
309
320
324
319
320
325
327
239
634
421
319
327
334
344
363
381
385
380
350
322
320
323
328
340
333
332
334
335
287
545
460
328
332
335
343
359
375
383
380
357
322
313
315
314
328
322
317
321
323
293
463
453
321
318
323
334
348
366
375
375
356
320
308
312
313
329
322
320
326
328
306
417
466
337
331
337
344
359
381
389
386
375
341
328
325
326
344
334
331
329
332
310
411
437
339
327
326
335
344
367
375
369
349
318
305
304
311
323
313
309
310
313
305
343
419
333
312
317
326
341
362
370
371
353
322
306
305
307
322
322
314
315
319
319
239
557
385
315
320
327
337
356
372
374
364
334
311
309
309
315
323
318
320
321
324
250
609
431
311
315
323
335
352
372
374
371
343
311
307
309
312
324
316
317
321
323
267
567
444
315
320
324
336
350
368
376
374
349
315
307
312
314
327
323
324
324
326
273
547
449
324
328
335
346
358
380
389
386
364
334
328
330
332
345
343
337
343
346
321
443
467
342
329
338
341
357
375
380
378
361
325
310
306
314
323
314
308
312
313
277
484
417
312
312
313
326
344
364
367
362
342
316
304
309
319
337
324
322
323
330
297
479
437
333
329
334
343
358
378
387
381
360
328
316
316
316
337
325
322
323
326
312
391
462
334
317
321
330
344
363
373
371
353
317
306
310
310
326
316
314
316
318
282
484
448
318
316
322
331
347
366
374
373
349
316
308
311
321
324
318
320
324
325
234
643
413
318
322
329
340
362
378
382
378
344
318
319
319
335
326
324
326
326
315
352
491
338
319
323
332
343
362
375
375
358
319
306
306
315
321
310
313
316
318
224
628
398
307
311
320
330
349
364
368
363
331
307
306
307
323
316
316
318
320
277
528
448
317
319
326
336
352
368
377
374
350
315
308
308
320
320
312
316
316
318
238
550
368
313
318
325
337
354
369
372
364
333
313
312
316
330
323
324
327
328
273
539
444
326
328
329
339
354
372
375
371
349
321
314
311
327
320
309
312
316
296
425
397
318
308
311
318
330
350
350
345
330
301
285
285
301
302
288
286
287
288
221
486
351
282
289
295
308
322
336
334
327
300
283
285
287
304
298
294
296
301
246
526
415
295
300
308
318
335
351
363
359
337
307
305
307
327
321
318
324
327
313
394
443
342
325
328
338
354
375
383
378
358
327
312
308
323
326
316
319
322
319
281
479
347
314
320
329
341
359
372
370
357
325
309
309
322
327
318
316
318
320
248
503
368
316
319
327
340
355
367
368
356
325
306
302
309
316
306
305
306
305
232
477
356
295
295
301
310
324
333
331
318
287
267
260
274
277
266
266
268
268
204
412
320
270
275
282
293
314
334
335
324
293
271
269
282
279
269
273
276
275
242
372
322
277
284
291
304
322
338
332
320
296
274
274
291
296
285
285
291
291
274
402
346
300
308
317
333
352
359
356
345
317
304
302
315
318
308
307
311
312
235
519
385
305
310
316
328
346
357
359
347
316
293
288
293
304
295
290
292
293
215
522
385
293
293
300
308
319
339
337
322
290
267
261
271
274
261
263
263
265
192
479
348
260
266
271
283
302
319
316
310
282
261
264
270
290
281
282
285
293
227
536
398
286
297
306
317
337
352
356
351
324
294
29
