325
331
333
336
257
565
432
337
341
348
354
366
383
404
419
429
410
355
320
316
315
319
322
328
333
346
334
337
339
341
343
276
563
446
342
344
350
357
367
385
405
422
432
420
365
329
319
320
324
326
330
328
342
348
339
341
344
346
339
354
460
371
343
343
349
356
369
386
403
413
413
373
316
296
289
286
283
282
280
273
292
281
274
274
275
272
215
452
376
261
258
259
266
274
289
306
325
339
332
282
240
228
229
232
236
241
242
261
268
265
270
275
283
278
296
405
326
300
307
318
329
347
370
393
409
412
376
328
310
313
313
320
328
333
341
356
347
350
355
359
361
286
588
455
361
364
371
380
391
408
429
445
453
435
384
351
342
343
344
345
348
349
365
356
356
357
359
362
305
557
467
358
359
362
370
378
393
411
430
439
432
381
339
328
327
328
335
335
335
355
350
344
351
351
356
338
437
448
373
358
361
368
376
390
411
427
442
443
402
352
334
332
330
335
342
343
360
350
342
345
345
347
303
527
433
349
342
348
356
364
381
400
417
426
418
367
323
312
311
314
318
323
330
344
334
331
334
336
339
256
587
435
336
339
344
352
364
381
401
416
425
405
351
318
314
314
315
319
320
328
343
330
331
331
333
333
258
528
398
326
331
334
344
356
375
396
407
410
382
323
296
288
288
287
293
301
314
302
296
295
294
297
224
532
387
291
292
296
305
317
336
356
373
382
360
301
268
263
263
268
275
283
300
289
289
293
297
301
222
564
407
306
308
315
326
341
360
383
402
414
392
334
306
304
305
308
312
320
339
329
329
334
340
342
271
584
446
347
351
355
364
378
396
418
436
445
422
368
332
327
327
327
334
344
349
339
343
344
346
346
274
546
416
340
339
348
356
370
387
406
420
425
389
335
309
305
306
307
317
327
316
311
316
315
317
255
551
412
314
315
320
327
338
356
378
396
404
386
329
296
289
287
289
296
312
311
309
314
320
324
309
381
444
346
329
334
342
351
367
388
410
423
421
372
328
315
316
317
324
328
345
336
337
339
342
344
302
522
444
347
342
348
353
362
381
402
422
431
419
360
324
315
315
318
320
329
341
331
328
334
334
337
275
566
438
337
340
343
352
362
378
400
413
420
401
342
307
298
296
298
300
301
322
315
309
311
313
315
300
356
441
334
314
318
324
334
350
368
388
403
405
358
309
298
299
299
306
307
327
326
322
322
329
331
332
297
480
380
335
340
345
353
367
394
410
427
424
384
332
312
310
312
317
319
336
332
323
323
328
329
331
277
489
388
334
337
345
355
370
389
412
425
429
389
335
314
316
316
320
325
341
341
335
340
342
344
343
287
516
394
345
349
357
366
380
400
419
433
435
392
338
319
318
320
322
324
325
347
340
337
339
341
343
315
453
451
349
343
346
354
364
379
398
417
430
427
373
330
319
316
318
320
327
332
350
340
332
339
340
344
265
575
430
339
342
348
356
370
387
406
420
427
401
344
317
310
312
313
317
323
329
341
327
329
332
335
337
267
538
408
341
345
350
361
372
388
410
424
428
394
339
316
309
309
312
314
316
323
329
320
322
325
328
327
301
470
367
325
328
336
344
354
375
394
407
410
367
309
284
282
276
279
278
275
289
287
275
275
277
276
247
401
363
281
265
270
278
287
300
320
340
349
345
294
252
245
246
254
260
269
276
294
283
283
289
299
303
226
546
382
315
322
333
343
361
385
410
427
437
407
352
333
336
338
342
347
351
364
365
360
367
371
375
314
587
486
372
371
374
381
390
405
424
442
452
435
380
342
337
335
334
339
342
339
351
350
348
345
347
349
291
560
458
347
348
351
358
369
384
403
422
433
417
365
329
323
322
326
331
336
338
356
352
346
348
351
356
310
534
466
359
360
365
373
385
397
417
433
442
433
378
335
324
320
321
316
319
318
333
322
316
316
316
312
245
521
410
302
299
302
306
315
330
348
363
373
355
299
262
252
254
258
262
271
276
289
281
284
288
292
296
218
522
393
303
307
316
325
340
365
386
402
412
390
337
307
303
304
310
313
318
334
334
326
332
333
339
331
360
449
370
345
347
354
363
380
397
417
429
431
388
340
325
326
329
332
338
337
355
352
344
349
352
352
286
576
456
350
357
358
363
378
395
411
427
435
416
361
324
318
316
317
320
319
336
334
324
326
325
328
320
328
437
359
328
332
338
345
359
377
398
408
408
367
319
302
300
303
306
311
319
333
322
322
328
335
340
265
559
418
341
347
348
361
377
390
412
428
434
408
351
326
323
323
322
330
343
346
336
334
338
344
341
373
423
381
351
361
367
378
395
415
432
441
444
395
347
333
332
337
332
346
362
342
336
349
340
346
267
594
441
341
340
356
346
379
396
410
429
432
407
345
324
320
319
315
317
339
334
328
330
336
338
316
443
448
349
337
343
346
356
370
388
407
417
409
356
312
299
301
300
304
303
323
320
315
316
320
325
272
522
432
326
330
328
342
350
365
390
407
414
404
343
310
305
303
310
312
329
328
319
320
330
336
328
375
415
366
339
350
351
367
385
409
428
437
432
384
338
328
322
326
336
344
336
327
342
330
335
305
504
424
348
342
339
353
355
380
396
418
426
415
356
315
307
304
302
311
321
327
319
321
326
329
277
530
444
335
331
332
341
354
368
390
407
421
405
343
310
300
300
304
302
319
317
311
314
322
324
290
465
435
330
324
331
336
346
363
382
401
413
402
347
307
301
304
307
310
316
332
321
324
327
330
333
253
577
423
333
328
338
345
356
378
399
416
426
405
346
321
314
321
318
333
337
354
335
341
341
343
344
307
464
393
343
346
349
360
369
396
410
417
420
379
332
312
310
309
319
331
338
327
328
333
338
335
313
465
382
341
346
353
366
381
402
420
429
429
381
330
315
313
314
319
330
337
322
325
329
330
316
372
445
345
324
328
335
343
359
377
397
408
404
351
308
295
295
295
297
308
313
308
311
314
317
316
287
464
359
323
327
332
346
359
378
397
409
414
367
319
307
303
308
310
314
335
330
324
332
333
336
272
560
440
338
341
351
361
373
388
410
424
433
411
355
324
316
316
317
320
341
333
323
325
324
325
296
462
413
329
321
322
329
338
354
372
385
393
382
326
285
274
273
277
279
280
300
296
290
292
294
297
274
403
409
314
304
307
316
328
343
363
384
397
392
340
298
290
290
295
298
297
316
319
312
318
320
326
324
317
462
368
333
336
344
356
370
389
410
423
422
380
329
315
315
317
319
323
336
342
334
335
339
341
335
359
459
373
347
352
359
368
383
401
420
430
427
382
335
319
315
320
325
327
340
342
334
340
341
347
307
508
448
351
350
356
361
372
385
408
423
433
419
369
328
316
317
316
323
330
345
334
335
336
336
338
262
546
420
335
342
344
355
369
391
408
420
428
392
340
315
313
313
320
322
324
339
337
332
335
337
339
292
520
448
344
340
346
353
365
381
401
416
427
414
358
320
313
312
312
316
319
322
337
330
330
331
332
334
262
570
437
334
337
343
349
360
377
396
415
422
397
344
311
305
305
309
313
317
317
335
331
329
329
332
335
257
566
433
334
338
344
350
359
378
398
410
419
399
340
309
301
300
304
305
306
303
317
310
302
300
298
298
219
516
379
276
272
275
275
284
296
313
321
331
301
240
208
196
198
199
206
220
235
221
221
228
233
238
193
388
307
253
261
273
290
309
333
359
376
383
343
296
284
287
292
296
309
324
327
322
326
334
341
297
533
457
354
357
362
370
381
401
422
442
453
439
383
347
341
341
343
347
352
362
366
358
361
363
367
341
475
475
373
365
368
376
386
402
422
440
453
445
394
351
341
344
345
348
354
362
374
369
370
377
375
381
302
607
461
378
380
385
395
406
425
444
459
463
432
377
348
345
342
346
352
363
366
352
353
355
356
356
323
482
406
355
355
364
377
390
410
428
442
438
392
339
322
317
319
320
328
343
332
326
329
333
334
253
582
426
327
329
333
338
351
369
391
406
415
384
326
300
294
295
296
300
304
322
311
308
311
314
315
236
558
407
315
317
323
331
345
364
387
404
411
382
326
299
295
295
299
304
314
325
314
317
321
328
325
294
464
372
332
336
343
350
370
391
411
424
424
379
333
314
315
315
318
331
347
332
328
332
336
338
262
574
425
341
341
350
358
373
391
413
425
430
399
341
316
312
312
317
322
336
332
324
327
330
331
310
438
438
347
337
340
348
360
376
398
416
428
418
364
322
312
311
313
316
322
338
328
325
328
332
334
272
559
440
329
330
333
343
353
372
394
415
425
408
344
318
312
314
319
322
328
345
335
333
338
340
344
265
577
433
342
351
357
366
378
401
424
436
444
410
357
333
322
322
327
332
338
349
340
335
337
338
337
251
582
420
325
326
333
337
349
365
383
393
397
363
300
271
259
259
257
258
265
272
258
256
255
256
256
179
454
315
249
252
256
266
278
299
322
338
342
303
248
229
230
233
241
249
254
275
273
272
280
284
289
252
458
408
307
305
313
325
337
356
383
403
418
410
354
316
311
315
317
323
327
336
351
342
345
351
355
359
285
607
458
364
368
378
384
401
417
443
463
469
440
382
353
349
351
353
354
358
380
369
364
367
368
368
311
591
471
367
370
372
381
398
414
435
453
462
441
383
350
342
344
345
351
353
364
368
358
360
363
365
357
367
500
392
363
363
370
377
391
409
427
439
435
381
331
317
313
313
312
316
324
330
320
320
322
324
322
261
502
375
318
320
327
334
346
365
388
404
406
362
309
288
287
290
290
293
299
319
309
309
314
315
318
242
558
417
323
328
335
338
357
377
398
416
421
397
338
307
305
306
313
316
329
336
323
322
325
326
328
264
504
393
331
333
339
349
364
383
402
414
417
374
320
303
300
303
307
314
328
327
321
324
326
330
326
340
464
362
334
339
344
354
368
390
410
424
422
375
326
314
315
318
320
323
332
339
333
335
338
341
340
289
508
391
343
345
353
362
374
392
412
425
429
386
332
315
313
315
315
314
331
335
328
332
333
335
324
366
446
357
339
340
348
357
372
391
408
420
417
366
320
309
308
308
314
315
330
325
320
325
329
330
268
549
440
333
337
341
350
359
376
395
412
422
400
342
311
306
308
310
316
332
323
321
324
328
330
253
555
425
332
337
342
351
365
383
401
416
425
393
334
308
306
306
309
317
327
314
315
319
322
322
252
504
395
323
325
332
340
350
366
386
398
401
363
308
283
282
283
285
300
297
287
287
293
297
299
245
450
361
301
301
310
320
337
355
376
388
391
353
300
282
279
285
292
307
303
299
302
306
310
259
511
423
316
316
323
332
347
362
384
402
411
392
338
304
301
304
308
314
329
322
322
324
329
334
264
568
434
338
341
349
361
371
390
410
425
432
403
346
322
322
323
326
331
349
340
336
344
343
352
310
525
449
356
355
363
368
384
401
424
440
449
435
384
342
337
336
339
346
362
353
346
352
351
353
311
538
441
360
356
359
366
378
396
416
429
435
419
362
324
314
313
317
320
336
328
325
326
329
331
269
559
435
330
333
339
346
357
375
395
409
417
394
337
307
302
301
304
307
321
329
320
322
326
329
327
289
483
376
333
336
342
352
365
382
404
417
418
375
326
311
308
309
312
314
329
331
324
326
331
337
326
342
443
363
336
338
346
357
370
392
409
423
419
372
328
314
309
313
314
323
339
326
323
325
328
330
264
574
432
333
336
344
355
369
388
409
423
430
408
351
322
314
313
316
320
333
331
322
321
324
328
295
477
433
338
331
335
344
358
373
396
411
420
408
350
315
307
304
308
312
319
332
321
319
323
326
327
246
573
418
331
332
337
346
358
376
396
406
412
380
325
303
300
301
302
305
305
320
323
315
318
322
323
317
324
461
355
328
331
337
348
364
384
407
417
418
367
322
308
306
306
310
315
326
331
321
324
323
330
330
264
510
399
333
337
343
354
371
390
409
426
429
389
339
317
313
313
318
321
331
338
325
324
326
327
324
287
470
369
322
325
331
340
356
377
399
409
408
360
308
296
294
295
300
307
315
320
313
316
321
326
321
330
468
362
335
335
342
356
371
389
412
425
423
373
331
316
316
320
325
333
336
353
349
345
348
354
357
281
569
432
355
360
366
375
394
414
434
449
454
421
366
345
338
339
341
343
352
355
342
339
341
338
323
392
427
351
324
325
330
336
349
367
384
390
378
322
276
264
259
259
261
269
281
270
269
269
274
274
216
481
385
274
277
284
292
305
324
346
362
373
354
299
266
262
266
272
277
283
292
308
302
303
308
313
319
236
558
411
325
329
336
347
358
378
397
412
420
391
336
314
309
312
313
315
317
332
323
320
322
327
329
278
496
438
320
315
318
324
332
345
364
377
386
368
309
270
262
261
264
262
265
281
284
277
283
287
291
287
263
420
344
299
302
313
322
341
364
385
395
397
357
304
290
289
292
295
301
321
323
311
314
318
323
321
285
464
375
327
327
340
349
367
388
408
418
421
372
323
306
306
308
312
314
324
334
321
324
324
328
332
246
574
412
328
335
339
349
365
384
408
422
428
393
337
316
313
318
320
327
328
346
342
340
346
351
353
317
502
475
361
356
359
369
379
396
417
437
447
435
382
342
335
335
336
339
340
352
357
348
351
353
355
352
309
508
397
349
353
361
370
383
404
419
434
434
392
343
323
325
327
328
332
343
352
341
344
347
345
345
351
457
387
356
364
371
378
398
418
436
447
439
393
350
331
326
329
333
336
348
337
329
330
332
331
273
567
421
329
333
336
344
360
377
395
412
420
399
343
309
303
306
312
319
331
340
328
331
337
341
341
292
515
401
350
356
361
373
388
408
428
443
442
398
348
333
332
334
335
338
349
354
343
345
346
348
347
276
541
403
340
341
344
352
364
379
397
410
413
371
316
296
291
293
293
292
305
305
299
303
302
305
294
349
416
327
309
314
323
334
349
371
391
403
400
349
304
291
290
292
298
306
318
309
308
310
312
315
247
536
418
314
316
319
325
341
356
375
389
396
370
315
279
272
270
272
271
293
289
275
284
283
285
283
295
383
327
287
291
299
314
329
352
367
378
374
328
281
267
266
275
280
298
306
293
294
300
300
305
241
490
368
307
314
323
335
351
370
394
404
406
363
310
293
292
291
299
310
320
306
302
306
311
308
232
531
377
310
315
320
329
346
370
390
404
408
368
316
295
296
301
311
320
330
317
316
320
325
330
267
521
388
333
333
342
351
369
394
414
429
429
382
337
319
317
320
326
343
345
335
337
340
346
338
394
452
374
353
361
370
381
401
420
443
449
445
391
348
336
335
339
344
357
349
341
341
344
350
277
629
433
350
353
359
368
385
405
425
439
447
420
357
332
324
326
332
352
342
334
335
336
338
315
494
410
351
337
342
347
358
378
397
419
429
410
354
320
309
310
318
326
334
320
322
325
326
329
249
586
388
322
324
328
338
356
375
401
410
416
370
316
299
296
297
304
320
316
310
310
312
317
300
410
418
338
324
331
338
349
366
387
406
414
403
349
309
301
300
304
309
325
330
319
322
327
332
335
276
523
396
344
349
356
367
382
403
426
441
446
404
353
340
341
342
348
350
369
367
360
363
371
374
370
407
493
406
382
388
395
407
421
438
458
470
467
415
372
361
359
361
364
366
364
382
379
368
373
373
375
342
511
474
376
368
372
378
385
397
414
430
437
426
370
328
318
316
316
317
317
318
319
335
322
320
323
324
324
260
488
374
316
317
323
330
346
362
381
393
393
352
301
283
280
281
284
285
293
293
310
300
301
303
307
309
236
499
379
311
314
321
329
340
359
378
391
394
359
307
287
283
284
286
292
294
294
309
310
303
307
308
310
254
518
419
313
314
320
330
340
356
374
393
401
386
332
297
291
293
298
300
304
305
315
325
316
319
323
325
300
438
429
337
327
331
338
348
363
382
401
414
406
354
313
302
301
301
306
307
312
319
330
320
322
324
327
323
335
449
361
332
333
339
349
361
381
400
412
410
364
317
302
302
304
305
309
310
311
329
324
323
326
328
330
254
537
407
333
338
343
350
363
385
404
413
422
386
335
316
310
313
317
319
324
331
348
333
335
343
343
335
400
426
370
351
354
362
371
389
410
429
438
435
388
343
329
327
330
332
338
344
354
336
333
333
334
316
400
422
344
321
321
326
334
346
363
378
383
371
315
266
255
250
251
251
253
262
263
250
253
257
258
227
387
371
271
263
269
274
286
304
327
347
358
349
298
260
255
258
260
265
273
280
298
294
296
301
308
312
240
558
421
320
325
333
342
354
372
395
413
422
403
345
319
317
319
322
327
331
337
353
344
345
351
354
356
279
597
450
355
356
366
374
384
401
425
444
451
423
368
338
333
334
336
336
341
352
362
348
354
352
354
356
289
530
420
352
355
362
372
386
408
429
441
439
401
349
324
319
321
324
329
334
349
336
330
332
332
334
255
589
426
333
337
343
352
369
388
408
424
430
398
338
315
311
314
317
321
330
343
333
333
337
339
342
261
590
426
340
344
351
358
369
390
412
427
430
395
337
316
312
312
315
320
323
333
341
331
333
337
338
338
275
533
396
339
342
349
358
372
388
408
423
425
385
333
315
313
315
316
320
322
340
336
331
334
339
339
303
501
435
349
347
350
356
368
385
409
424
432
420
365
325
313
313
315
318
321
338
332
323
323
328
328
299
499
412
339
336
337
349
359
374
399
415
421
408
353
313
305
303
306
312
319
332
316
313
314
317
318
235
553
390
315
316
323
333
347
363
384
398
402
361
306
287
286
287
289
294
304
316
305
307
313
317
319
248
516
382
321
324
331
341
354
373
394
409
414
375
323
302
301
304
307
311
313
328
326
326
330
334
336
265
570
431
335
334
340
350
363
383
403
416
424
398
342
309
298
297
299
302
314
317
308
310
315
319
304
379
417
340
324
327
336
346
363
381
401
411
402
349
308
300
300
303
306
316
333
320
321
326
330
333
263
528
401
340
344
351
361
374
390
414
429
433
391
341
323
320
322
325
330
347
339
337
341
343
344
274
572
441
350
352
356
363
376
394
412
429
437
406
352
325
320
322
324
328
342
334
329
331
332
336
298
523
423
349
348
348
355
368
388
408
425
432
416
356
322
311
311
314
316
330
322
314
316
317
322
298
447
413
341
330
334
341
351
368
389
405
416
401
346
305
297
296
297
300
313
317
309
310
312
316
315
276
456
365
318
322
327
334
350
371
390
400
401
354
308
297
294
302
304
305
319
325
316
323
327
330
335
269
519
402
342
350
359
366
381
402
424
439
442
407
358
338
331
335
334
341
357
348
345
346
348
347
308
530
430
351
349
353
360
374
392
411
425
428
410
352
315
306
305
304
307
312
325
309
307
307
310
312
233
558
403
306
307
312
324
333
351
373
387
394
364
309
288
285
287
294
293
307
318
308
310
313
316
320
245
550
406
326
331
337
348
361
383
404
419
423
389
333
306
303
306
310
317
321
329
316
315
316
317
316
242
518
384
311
311
320
328
341
357
376
385
386
344
288
269
265
266
268
271
274
289
285
280
285
287
289
238
488
399
294
293
298
308
322
340
361
379
387
373
318
285
284
283
284
290
294
295
313
307
306
307
308
309
255
505
401
303
299
299
306
313
328
344
359
363
345
285
248
241
231
238
239
245
243
258
247
245
245
245
247
184
490
345
250
252
261
269
281
301
323
341
351
329
273
242
239
241
244
254
265
277
288
280
290
296
301
302
289
460
357
326
332
343
352
373
394
418
434
432
389
340
327
331
335
341
346
353
357
373
369
368
373
378
379
304
626
479
379
383
388
396
406
426
448
466
471
446
391
359
355
352
353
353
358
363
378
365
366
364
367
369
294
610
452
362
364
368
378
390
409
433
446
451
422
366
335
330
330
336
339
346
351
363
351
355
359
361
363
301
546
424
368
372
380
389
405
426
449
460
461
419
366
347
346
347
350
352
355
356
370
366
364
366
367
371
297
603
468
363
363
367
373
383
399
420
435
442
419
362
328
321
321
321
321
326
328
331
349
338
339
342
342
341
267
571
426
341
345
348
358
374
390
413
428
434
402
347
319
314
313
315
317
319
322
335
322
318
319
320
319
238
537
391
312
312
319
329
341
359
380
394
398
363
304
283
279
283
286
289
293
300
312
300
304
308
312
314
247
513
377
315
321
327
336
352
374
396
411
415
375
320
303
302
302
306
310
317
318
334
328
328
333
338
339
269
579
439
339
342
349
355
368
387
409
423
431
410
353
323
318
315
320
323
325
340
344
332
339
339
341
340
289
492
401
341
342
350
360
375
395
413
426
427
385
331
312
308
308
312
318
325
336
324
323
326
329
330
246
580
414
327
329
335
345
359
374
397
411
416
382
323
299
299
299
302
305
307
321
326
319
322
326
331
332
266
525
390
334
337
342
352
365
384
404
420
424
382
330
305
307
310
313
317
317
330
334
328
332
333
335
329
375
422
356
332
339
342
355
369
390
410
419
415
362
316
301
298
300
303
304
320
323
311
310
317
314
307
351
410
341
319
331
329
342
355
387
388
412
406
349
305
294
286
284
297
303
318
303
302
304
311
313
231
567
414
321
322
331
340
356
374
396
413
417
382
326
302
299
302
304
311
322
329
325
322
324
329
321
350
460
361
337
341
351
361
378
400
421
435
431
375
335
327
323
323
325
326
339
345
334
340
343
347
317
417
451
352
335
334
338
344
360
378
394
403
395
335
288
278
275
273
269
271
283
281
272
270
271
273
272
228
422
319
271
277
277
285
304
322
344
357
363
318
266
253
257
254
259
261
281
281
275
281
285
288
285
266
411
339
294
298
305
316
329
352
371
385
382
337
288
274
274
278
282
289
295
311
304
306
313
318
322
247
550
399
326
331
337
346
359
382
404
422
428
391
338
317
314
315
319
325
332
345
337
338
342
347
352
278
576
432
356
360
368
379
393
412
434
455
459
419
368
345
343
344
347
349
351
366
369
357
362
365
367
358
398
450
397
369
374
379
388
403
423
440
449
446
396
352
334
330
331
335
340
349
357
341
340
341
342
343
291
500
400
343
344
351
358
374
394
414
425
425
377
325
312
308
309
313
319
328
340
331
326
330
336
349
271
568
439
341
341
346
354
364
384
406
423
432
412
348
317
312
311
312
315
322
323
338
338
340
347
311
326
281
518
440
335
335
340
346
355
374
394
415
424
413
356
315
308
307
305
309
310
311
321
332
321
321
326
328
326
299
448
376
333
338
344
354
370
395
416
429
429
385
336
315
310
313
317
320
325
335
333
323
324
327
328
276
535
428
327
322
329
333
342
358
379
394
404
386
325
284
280
275
277
279
281
286
290
295
287
290
292
294
247
474
406
300
299
303
313
325
341
367
390
401
388
332
294
284
287
292
292
301
312
320
308
315
317
320
303
412
402
347
327
331
337
351
370
391
410
419
411
357
314
302
300
302
307
314
324
327
315
316
322
325
287
499
427
330
328
332
342
354
370
390
408
420
406
349
313
306
306
307
309
317
333
323
317
320
324
327
252
579
430
335
335
342
350
364
382
402
418
429
401
344
317
316
316
319
323
328
346
338
339
339
346
350
289
571
455
351
353
359
367
379
397
419
438
447
432
375
341
331
332
333
340
344
358
347
350
351
350
350
279
589
438
347
351
355
362
373
390
410
423
431
403
346
315
305
307
309
313
324
332
320
318
324
326
328
247
573
410
328
329
336
344
356
375
395
412
417
382
328
304
300
301
304
304
317
327
317
320
324
326
328
249
570
414
331
335
343
351
363
383
402
419
427
396
336
313
308
308
311
313
333
337
327
334
332
337
335
309
457
383
338
345
347
356
373
395
418
428
426
378
327
308
302
303
304
317
322
306
306
305
309
308
244
470
363
301
302
308
314
325
342
362
373
373
329
274
253
248
247
250
260
264
251
250
253
255
254
231
385
299
262
267
276
287
304
327
345
359
360
310
262
252
251
258
261
280
274
273
281
287
289
221
529
392
301
305
315
324
341
361
386
399
410
376
326
300
300
301
308
326
314
310
317
320
327
290
527
412
340
333
340
348
362
384
406
423
429
409
350
320
310
312
322
341
332
325
330
332
336
312
495
417
352
347
350
359
373
391
414
431
439
419
363
328
320
321
325
346
334
329
331
335
338
296
528
437
342
339
344
355
367
383
405
421
429
404
346
315
312
313
312
334
333
325
327
333
335
335
318
475
375
344
349
356
367
381
402
422
433
426
375
328
315
316
315
317
334
335
331
331
335
340
336
305
474
382
342
348
355
364
379
401
416
432
428
379
334
318
316
319
322
337
342
334
336
338
341
344
276
541
414
347
346
353
363
379
396
415
430
428
384
336
319
317
315
318
337
335
322
323
324
326
313
391
431
347
330
332
340
348
366
387
405
416
400
344
306
297
298
302
305
320
321
317
317
323
328
281
516
438
334
332
337
346
357
376
396
415
424
397
338
309
304
306
305
311
315
333
324
322
324
329
330
251
554
403
332
335
338
350
364
384
406
424
428
382
330
314
311
311
323
319
336
342
337
341
343
348
323
464
442
359
348
353
360
374
391
416
431
441
423
364
330
316
313
313
320
329
342
331
329
328
329
330
262
521
395
327
328
335
344
360
381
401
414
413
364
315
297
296
295
301
307
324
309
308
312
315
315
260
494
369
319
322
327
338
353
374
395
406
403
352
305
293
290
294
293
298
304
321
311
313
320
322
324
257
516
384
330
334
340
352
367
386
407
421
423
377
329
312
309
313
315
320
323
345
337
337
342
347
350
271
594
442
352
356
363
372
387
407
427
444
448
411
354
333
331
327
332
334
332
349
350
339
342
344
346
322
460
440
350
342
346
349
359
377
396
414
418
405
347
305
294
291
294
297
304
319
312
304
309
314
316
245
514
387
316
322
331
340
358
381
401
417
420
375
328
310
309
307
322
333
345
331
326
333
338
335
331
443
374
343
347
353
370
384
412
431
441
432
376
332
320
315
320
326
339
349
331
328
328
334
325
377
422
350
329
331
336
347
365
392
411
418
408
349
312
297
298
299
304
317
328
314
311
311
317
318
262
538
374
325
328
333
347
362
385
408
421
417
364
314
300
300
304
303
310
317
324
311
312
314
314
301
385
430
334
312
317
323
338
354
376
396
404
391
334
288
281
280
283
285
290
294
312
305
302
305
309
312
231
586
407
316
320
324
334
349
368
389
403
410
379
323
298
296
297
299
304
305
325
323
318
322
323
327
291
490
440
337
330
335
343
355
372
392
409
423
404
349
315
310
308
312
316
318
327
335
326
329
332
336
339
276
524
399
342
345
350
359
375
392
411
426
430
386
335
316
321
320
324
326
330
351
345
342
346
346
348
282
581
447
351
354
363
371
383
405
426
445
449
424
372
339
331
327
334
340
348
362
346
340
344
347
347
276
557
398
342
344
347
360
372
395
414
426
430
385
330
307
302
307
311
322
338
326
318
321
327
325
253
577
372
321
322
329
339
352
377
400
416
416
371
317
297
293
290
297
309
323
306
301
302
306
311
237
560
371
312
314
320
333
347
369
389
405
405
359
307
287
283
286
292
301
319
307
302
304
309
311
231
583
384
312
313
319
328
341
361
381
393
396
353
297
279
276
279
282
288
298
309
300
300
303
305
311
230
568
388
310
312
319
329
342
360
380
396
401
360
306
282
278
283
283
283
304
309
301
308
309
316
298
404
433
343
326
334
342
357
374
396
412
424
415
357
322
315
312
317
320
334
343
330
332
335
339
338
326
471
381
347
351
359
367
386
406
427
438
428
378
333
322
317
322
323
342
344
331
331
334
338
337
276
513
396
334
336
343
351
369
385
405
419
416
364
319
303
298
301
307
307
323
322
314
317
319
321
319
300
464
362
321
326
331
342
357
377
396
409
403
352
307
295
294
298
303
308
308
327
323
320
325
329
331
276
543
444
333
336
340
349
363
380
399
413
424
400
346
312
305
306
306
307
308
318
325
314
316
316
318
316
247
504
368
308
308
316
320
332
357
375
387
384
336
284
266
262
261
269
270
271
291
285
280
278
281
281
228
504
388
285
285
291
300
315
336
359
377
385
364
310
277
275
277
281
288
300
316
306
307
313
318
321
240
587
426
328
334
342
352
368
388
413
426
433
394
337
318
317
316
317
322
324
341
337
335
334
339
342
283
559
454
344
344
350
359
373
388
410
428
436
414
354
324
321
321
323
326
329
341
344
333
337
337
340
317
432
442
345
329
331
333
339
352
372
384
389
374
313
269
253
249
250
247
255
265
252
245
244
244
244
164
500
336
236
237
245
254
269
288
312
326
333
295
240
221
219
224
232
239
249
266
257
260
267
273
281
202
527
371
295
297
308
322
340
366
391
407
414
377
327
310
309
313
320
328
338
353
342
343
346
355
356
283
571
427
359
362
372
383
396
417
438
453
457
413
362
345
346
348
350
356
370
376
367
368
373
376
368
384
479
411
377
383
391
401
415
438
457
467
456
403
357
347
345
346
349
352
366
355
344
344
346
346
275
594
436
340
341
343
351
365
378
401
418
421
388
332
304
298
299
300
306
319
318
309
314
313
315
305
358
435
344
321
325
330
342
358
381
402
419
405
352
313
309
312
318
322
327
347
345
344
347
350
355
322
527
456
371
366
373
376
387
401
427
444
452
433
373
336
328
327
331
330
345
344
337
333
334
336
329
345
448
363
330
334
344
353
366
386
406
419
407
349
306
297
298
302
308
312
327
313
313
316
322
324
243
592
419
320
321
330
338
350
371
393
405
413
378
320
302
297
299
305
308
312
331
322
324
326
332
332
258
591
424
341
341
350
359
374
397
420
434
440
403
346
325
322
325
328
327
345
341
328
332
335
336
319
447
421
347
332
335
341
354
373
399
411
423
407
352
313
304
302
306
311
321
327
317
322
316
317
321
250
528
391
327
326
334
344
356
380
399
408
415
348
298
282
278
278
266
275
280
287
270
269
267
266
264
189
466
326
256
255
261
272
284
310
329
345
350
308
258
253
247
252
257
265
282
294
287
289
295
297
299
259
473
362
317
322
329
350
368
388
412
431
422
382
332
322
318
322
323
332
338
348
338
333
336
334
336
258
584
425
337
346
347
356
375
393
414
427
429
390
337
317
318
314
320
323
322
339
341
332
338
339
342
294
551
465
346
347
356
357
374
391
418
435
441
423
369
338
332
334
342
342
349
358
362
355
355
363
361
333
499
465
370
364
366
372
375
399
419
440
446
435
375
338
329
322
328
327
334
339
353
343
339
340
343
340
318
497
382
343
344
348
361
376
399
416
428
424
378
325
314
312
311
315
319
324
340
328
330
334
337
335
246
596
422
331
334
340
349
363
382
405
415
419
378
325
303
301
302
306
310
312
330
323
317
320
321
321
272
526
426
320
311
319
324
335
352
371
389
396
376
321
280
271
272
272
279
276
295
285
278
277
277
277
225
507
382
282
279
281
291
304
321
343
363
369
352
290
258
256
255
261
268
270
288
288
280
287
289
293
281
325
428
321
295
297
305
317
332
354
373
383
377
329
283
276
280
280
287
293
298
318
314
313
319
321
328
255
584
435
328
330
339
346
363
379
406
420
432
406
350
317
317
317
321
327
330
345
348
339
340
342
348
325
466
441
363
349
354
365
372
391
411
428
439
427
373
331
320
319
325
329
337
347
346
339
342
345
348
300
552
466
356
354
359
368
381
396
417
436
445
425
367
331
326
326
329
333
336
343
353
347
350
353
354
327
471
464
366
356
359
365
374
391
412
429
435
425
373
331
323
320
321
323
327
340
335
325
329
329
331
263
575
418
326
323
328
335
349
367
393
405
413
388
330
301
293
295
299
305
313
324
309
310
314
317
313
312
467
358
322
323
332
343
362
381
403
416
412
359
314
301
302
305
305
313
326
325
323
325
328
332
258
588
442
330
332
337
347
359
378
396
411
421
394
339
311
307
309
314
316
324
339
328
328
333
336
337
258
565
413
340
342
346
357
367
387
409
422
424
389
333
313
308
311
316
318
332
330
323
325
327
329
286
509
424
333
325
333
341
350
371
392
407
413
398
340
306
297
300
303
307
313
325
314
312
317
322
325
238
569
403
321
321
328
339
355
375
394
407
411
376
329
303
304
303
308
315
322
338
327
331
336
338
342
262
590
432
337
341
347
358
371
390
414
429
434
401
348
325
319
319
324
329
344
342
332
332
335
336
324
383
436
357
331
335
338
349
364
384
400
409
396
340
291
278
271
275
275
281
295
280
277
277
279
280
191
543
369
276
278
286
295
309
330
352
365
369
334
277
257
256
259
262
267
278
288
283
288
291
298
302
223
532
381
310
316
326
339
355
378
401
414
419
378
328
312
307
312
315
322
336
335
329
333
334
336
331
375
445
364
341
340
349
361
377
401
417
431
418
369
327
316
314
315
322
334
346
331
332
335
338
341
261
571
418
342
345
351
360
376
399
420
433
437
394
338
321
318
321
325
331
344
334
333
334
336
342
257
602
425
340
345
351
363
378
396
416
430
433
388
334
317
316
316
318
330
339
328
329
333
337
338
251
600
425
338
340
347
356
369
389
409
422
424
382
328
311
310
311
312
320
334
325
324
328
333
338
256
576
420
339
345
349
364
379
400
424
437
441
398
346
328
328
330
326
346
342
333
330
336
336
326
335
419
354
315
316
320
327
337
355
365
370
354
299
248
232
225
226
226
244
233
219
219
221
223
192
370
329
230
226
230
242
255
274
299
319
330
312
259
228
226
232
237
243
264
271
265
272
279
285
286
285
442
339
308
316
329
339
362
387
409
422
418
372
327
318
319
323
327
345
347
340
344
348
353
346
382
482
389
366
370
379
391
408
430
450
462
450
391
350
342
341
344
343
361
364
357
358
363
365
334
503
474
375
369
374
383
394
411
430
448
457
438
380
344
337
336
341
346
360
350
347
351
354
356
285
540
421
356
358
364
375
389
406
425
439
438
390
341
326
324
327
327
343
349
338
339
342
345
340
333
454
384
347
352
358
368
381
405
419
433
420
373
330
314
313
316
321
341
334
324
328
332
332
291
532
419
334
331
331
341
353
370
391
405
411
384
327
295
287
288
293
302
311
299
295
297
300
299
252
464
343
296
298
303
312
327
345
362
374
366
312
265
255
254
257
259
273
277
270
274
277
283
275
294
416
318
294
299
307
319
336
361
380
396
387
333
295
289
289
294
297
316
318
315
319
324
333
327
367
455
366
347
351
360
373
391
415
430
440
433
381
340
328
330
332
334
356
354
344
349
351
354
337
440
438
375
358
363
371
383
400
421
437
444
428
374
336
325
326
334
338
349
343
338
340
344
347
266
620
437
345
348
353
363
376
398
414
429
429
386
334
314
309
308
315
328
332
317
318
321
324
310
380
445
345
323
327
334
345
361
385
402
413
394
336
297
288
288
291
292
308
309
299
302
303
306
297
319
433
330
303
305
310
320
337
357
373
384
372
316
273
262
262
260
262
277
287
276
279
281
286
287
239
450
341
295
299
307
320
335
358
380
395
390
339
296
287
289
291
297
312
323
317
321
322
330
331
267
508
403
341
347
357
370
385
414
435
445
445
399
352
336
336
335
344
365
367
352
352
354
360
355
353
466
395
363
363
371
383
399
423
438
448
437
384
339
331
328
332
340
354
351
340
338
340
342
320
462
425
354
340
344
351
366
382
404
421
429
409
348
312
303
301
302
306
314
325
310
307
309
310
315
233
583
409
315
318
327
337
351
373
392
407
413
372
318
296
295
299
303
305
319
329
321
322
330
330
333
255
582
420
340
345
353
362
377
398
420
438
440
402
347
329
327
328
330
335
340
360
351
346
350
348
354
285
604
446
353
355
360
369
380
402
423
440
443
414
357
327
319
316
317
321
322
337
333
318
317
319
318
280
499
408
321
314
317
327
337
354
376
392
398
376
316
281
274
276
279
283
287
302
301
295
298
304
305
275
447
419
320
311
317
326
340
357
380
397
406
387
328
294
288
290
293
296
301
313
322
315
318
321
326
328
251
543
396
331
336
343
356
370
388
413
428
431
387
335
321
321
322
327
334
335
354
358
354
360
361
366
350
458
466
387
373
377
385
398
415
439
457
468
455
396
358
345
345
350
351
357
356
372
359
356
355
355
357
281
604
448
344
347
350
359
371
388
409
425
429
394
335
310
304
303
305
305
311
309
327
327
315
317
319
321
287
466
432
328
321
326
335
346
363
385
400
411
397
339
302
292
292
296
298
301
305
305
324
324
318
321
323
327
269
540
439
330
329
334
342
350
369
391
410
422
399
340
307
300
302
307
306
307
312
313
330
328
320
321
326
329
279
525
423
331
331
335
345
353
378
397
415
425
405
349
315
305
303
307
311
313
318
317
336
329
324
328
330
333
261
581
432
332
334
344
352
364
383
403
420
426
398
339
310
305
307
308
312
317
319
320
334
332
329
329
333
335
252
591
432
333
336
341
349
361
380
404
419
425
394
337
310
306
305
308
311
314
317
324
335
326
329
333
334
319
396
453
352
336
339
345
357
372
393
415
429
417
364
318
308
309
309
310
316
318
317
331
337
329
332
332
337
302
491
418
339
332
335
340
352
365
385
400
407
390
332
288
274
268
265
268
267
269
275
263
252
250
249
245
158
489
327
220
222
221
227
235
253
269
280
284
243
182
153
149
148
150
154
162
174
183
176
181
188
194
191
238
344
242
224
233
248
264
289
315
343
362
359
310
272
268
276
284
293
304
313
333
330
334
342
346
353
273
608
446
362
367
374
388
404
425
453
472
481
436
383
362
361
361
361
371
380
395
383
382
385
392
394
321
613
476
397
402
408
419
433
457
480
492
493
452
396
378
375
376
377
382
389
402
391
387
391
391
392
317
647
490
387
387
392
399
411
430
448
465
471
434
374
350
344
342
342
344
349
357
357
350
351
356
354
349
320
503
389
350
352
360
369
381
400
419
432
430
378
331
316
314
314
316
319
318
336
337
328
331
335
335
309
468
439
348
337
342
350
360
380
402
420
429
420
361
323
313
314
314
315
321
328
337
327
330
333
333
334
263
532
404
332
335
343
349
365
384
406
416
418
373
317
300
295
297
303
306
313
325
321
317
320
322
325
250
577
428
324
328
334
343
356
374
397
412
419
388
330
303
299
303
306
309
315
324
334
326
327
330
334
334
288
502
382
335
340
346
358
372
394
415
430
426
379
331
318
313
316
321
322
335
344
336
335
340
339
345
268
552
414
342
341
351
361
376
398
422
430
435
394
337
318
316
316
316
324
335
343
325
324
327
331
327
316
460
370
330
334
340
351
366
388
408
420
410
358
310
297
296
297
300
308
318
319
309
316
316
319
289
445
431
331
322
327
335
343
359
381
401
411
396
338
301
294
293
295
297
302
311
322
314
317
320
322
325
266
509
380
327
329
339
349
362
382
402
418
421
374
327
310
305
310
310
315
326
328
317
321
322
322
300
420
414
328
311
310
313
321
336
355
370
374
353
296
247
236
235
231
230
241
253
235
233
233
234
233
151
462
313
225
225
233
242
255
279
302
314
316
277
222
203
202
207
212
224
242
232
232
238
244
252
180
509
367
262
270
278
294
309
334
361
380
392
361
304
284
286
290
296
303
320
328
326
332
338
346
344
328
502
393
362
366
377
389
404
435
452
470
465
422
374
366
364
365
364
383
388
383
381
387
388
386
316
583
458
385
386
394
404
417
434
452
459
458
409
352
338
332
336
337
357
350
341
341
342
342
334
376
465
366
341
341
348
361
377
400
420
431
417
360
318
307
308
310
309
326
323
315
319
321
322
313
358
453
349
327
331
338
351
368
390
409
421
409
355
315
307
310
312
310
331
328
321
324
329
333
334
279
511
388
339
342
350
361
374
394
415
430
428
380
331
317
316
318
323
326
343
336
332
336
341
345
299
520
455
350
352
356
363
377
393
412
428
432
417
363
329
321
322
321
317
334
332
322
320
318
329
321
327
457
371
331
334
342
351
369
394
415
422
414
358
319
304
307
313
321
327
341
332
334
339
339
339
287
532
396
344
349
354
366
378
395
415
425
416
364
314
303
302
306
309
320
331
320
324
326
328
319
346
474
356
332
337
342
355
375
396
418
427
418
365
322
316
319
324
322
342
343
340
343
347
352
325
482
452
366
362
367
371
386
404
427
446
454
438
386
346
338
337
346
350
366
353
348
349
352
353
269
596
433
344
344
351
358
373
393
415
424
422
385
323
301
301
293
300
306
310
301
307
302
299
259
495
453
315
315
306
318
325
347
361
381
390
362
288
254
249
245
241
244
253
239
225
225
217
206
156
425
255
212
208
238
210
242
276
303
317
305
255
222
222
237
232
231
257
273
265
277
282
290
201
585
440
303
313
325
334
353
376
403
429
435
396
340
316
323
328
321
330
349
347
342
354
357
323
484
511
368
355
362
369
381
400
421
438
450
429
364
329
329
330
333
336
352
344
342
346
345
347
254
590
414
344
347
354
361
379
400
425
437
435
380
329
318
320
321
325
343
340
341
346
349
353
245
647
455
353
357
363
374
390
412
433
446
449
401
343
325
328
326
327
347
348
340
344
346
348
263
622
479
342
342
349
358
370
394
414
431
434
397
332
306
299
299
302
319
314
303
305
305
307
234
566
429
304
303
309
316
332
350
374
389
395
364
300
276
273
273
279
291
301
291
294
296
301
249
512
444
307
306
313
322
335
358
381
400
409
383
319
291
288
288
292
300
317
313
312
317
318
322
218
615
419
323
326
335
346
364
387
408
424
428
379
325
309
308
309
310
315
330
326
324
328
332
333
248
555
392
331
335
343
353
368
393
416
429
427
377
330
316
315
322
323
330
346
339
341
340
342
336
325
464
384
339
344
351
364
381
404
418
430
423
368
323
311
312
315
320
333
336
326
326
330
333
280
547
460
334
331
337
345
361
378
401
418
426
398
335
305
298
301
304
307
317
324
318
321
324
326
257
574
474
325
326
332
340
355
377
398
415
424
394
330
299
299
300
302
300
320
321
316
322
327
331
252
587
477
327
331
336
345
359
379
402
419
429
395
332
305
303
303
308
309
320
333
326
331
336
342
316
452
511
358
349
354
366
379
400
424
443
458
442
382
344
341
344
347
350
352
369
365
357
359
362
361
271
591
457
355
358
366
374
388
410
430
441
441
395
338
317
312
314
318
320
334
334
325
326
329
329
237
609
449
319
321
325
335
349
370
392
407
411
369
307
285
281
281
286
284
299
302
296
300
302
306
218
583
435
300
300
303
313
326
348
370
387
393
352
290
267
264
264
266
265
280
285
280
284
291
293
209
561
432
292
294
299
308
324
348
373
391
401
361
298
276
276
280
282
283
297
308
304
307
311
316
280
458
484
327
323
330
339
357
377
407
428
442
422
358
323
318
321
324
327
341
350
342
347
353
355
305
550
475
361
358
367
376
390
416
436
456
466
435
372
345
337
338
343
352
367
353
348
353
351
350
282
559
414
352
359
364
373
396
417
438
450
439
379
325
314
308
310
315
327
323
319
320
319
322
224
629
411
316
319
327
338
354
380
402
418
413
358
303
288
286
286
292
306
306
299
300
303
305
218
624
416
298
299
305
315
331
352
376
395
401
355
293
272
273
274
279
293
297
293
295
300
304
281
414
465
321
311
317
327
343
364
389
410
424
399
336
300
297
300
303
302
323
324
321
324
328
332
266
585
479
332
333
339
349
366
385
410
428
437
402
338
310
309
310
311
310
328
331
325
330
333
337
267
572
485
335
335
336
347
362
381
403
421
431
398
334
304
300
304
307
305
329
328
320
324
328
328
247
584
470
325
328
336
343
357
380
405
419
426
388
326
303
299
300
304
309
328
319
316
319
323
323
228
558
420
320
326
333
346
360
386
406
421
420
366
312
296
292
297
303
315
322
312
315
319
320
249
582
451
317
319
325
335
349
374
399
418
422
379
315
290
288
291
298
308
314
307
307
311
312
265
497
464
316
313
316
328
344
364
390
408
418
383
320
294
292
294
297
299
315
320
317
321
327
330
246
608
473
329
332
341
351
366
389
413
431
437
395
334
313
313
313
315
319
326
342
334
336
340
341
336
306
546
378
343
346
355
368
389
411
434
445
436
376
332
325
327
330
333
331
352
356
347
352
355
355
306
543
501
359
355
360
371
381
402
427
442
454
423
359
328
323
325
324
325
326
344
340
332
337
337
339
260
607
460
333
337
341
350
362
383
408
421
426
385
321
295
288
290
294
301
302
310
308
301
303
301
301
191
598
403
280
278
279
283
292
306
325
334
331
274
205
179
170
163
157
156
154
157
171
159
158
158
158
158
74
394
219
158
163
176
189
210
238
267
287
289
237
191
184
190
199
210
222
234
239
263
274
277
285
294
301
247
536
459
325
329
340
353
370
395
424
448
460
438
376
340
335
336
340
347
352
354
362
375
367
372
375
380
370
397
556
409
382
384
392
404
424
448
471
481
468
406
362
352
349
351
353
356
359
366
378
370
368
369
373
356
399
551
387
365
367
372
385
406
426
450
464
452
387
343
329
330
330
331
336
343
359
351
348
347
351
348
292
523
408
347
348
359
370
384
410
432
442
433
373
322
306
304
307
311
319
325
339
325
322
328
328
326
271
521
378
325
327
334
343
361
386
407
423
414
352
305
294
296
297
300
306
308
324
322
319
323
326
329
222
639
438
323
327
334
343
358
381
409
424
434
388
328
305
309
309
313
319
323
345
338
337
336
343
343
251
629
456
341
347
352
363
378
402
427
446
451
406
346
326
321
324
332
338
348
356
343
343
348
349
329
413
471
367
342
345
354
366
386
411
432
443
423
357
315
307
308
311
314
321
334
332
325
327
332
331
253
605
472
329
331
334
343
354
376
402
420
432
395
327
301
301
301
301
304
305
315
329
320
324
329
333
331
265
559
381
333
336
343
352
373
396
421
437
430
374
320
306
304
306
308
312
323
337
332
327
330
332
332
239
591
425
329
332
339
349
363
386
412
422
425
373
314
294
290
292
297
303
303
318
321
312
315
317
320
269
517
459
322
317
323
333
345
366
389
409
420
393
329
294
290
290
292
296
302
311
322
317
320
324
327
303
412
500
345
329
333
342
354
371
399
420
436
418
354
312
308
307
311
317
318
327
341
333
336
340
342
340
303
502
393
341
342
347
358
370
393
413
422
410
347
288
269
260
254
252
248
244
251
239
230
227
225
223
113
507
314
204
207
212
225
240
264
294
313
318
273
216
205
206
212
220
229
241
258
263
267
275
285
289
217
555
451
307
313
324
335
353
380
407
434
450
418
357
331
335
336
340
344
352
361
377
370
369
377
377
381
298
603
462
379
382
390
400
416
441
461
474
475
419
363
345
340
340
341
346
350
363
352
349
351
354
355
251
649
454
348
350
354
366
380
403
428
442
446
397
336
315
314
314
317
320
326
342
333
332
335
337
338
232
637
437
333
335
341
351
365
386
412
428
433
386
326
305
305
306
307
315
312
333
335
329
334
335
335
304
466
487
346
339
342
350
363
384
406
426
440
422
358
316
306
307
312
313
318
338
338
327
329
334
336
321
387
453
360
334
337
345
357
377
400
419
430
416
355
311
300
300
301
306
310
321
330
321
322
323
325
327
227
599
402
325
327
334
345
363
386
409
424
425
374
317
301
300
303
309
312
315
337
330
331
331
335
336
238
635
452
338
341
347
360
375
399
419
438
442
404
342
319
316
318
321
326
341
343
335
338
341
344
338
309
485
385
339
340
348
357
375
398
419
430
422
361
309
297
297
298
302
304
317
318
309
314
315
318
264
521
459
321
317
321
330
344
363
389
409
420
390
326
294
290
292
294
299
301
317
320
316
320
324
328
290
470
480
334
327
332
340
354
374
400
418
432
411
345
308
304
307
309
313
313
330
338
329
333
334
336
329
319
495
379
340
342
351
363
386
408
430
442
432
374
325
313
311
314
319
317
339
339
329
331
332
332
308
421
453
342
325
330
340
351
368
392
414
422
404
338
295
288
287
291
297
294
307
316
305
308
309
312
305
281
503
350
311
316
325
338
356
382
406
420
412
350
301
290
294
295
299
305
308
332
323
323
328
331
333
251
610
455
329
333
338
348
365
387
414
431
440
404
338
310
305
305
309
311
322
335
319
318
317
320
317
231
537
385
305
305
312
322
336
357
378
389
387
328
271
255
253
252
256
258
266
278
273
271
277
281
282
176
592
392
287
291
298
312
326
355
384
402
409
365
306
288
289
290
294
302
303
318
329
324
331
335
340
316
431
508
353
342
347
355
369
391
414
435
451
442
372
331
324
322
324
327
328
330
352
348
342
348
350
350
276
617
469
347
349
352
363
381
401
426
443
454
422
355
323
314
314
318
320
327
322
343
337
332
333
337
338
242
637
451
333
337
341
351
367
388
414
431
439
399
338
311
311
310
313
319
324
328
343
334
334
337
338
339
242
599
408
335
339
344
353
369
392
416
431
432
382
323
308
309
307
310
313
317
317
340
335
331
334
336
339
251
616
464
332
338
344
351
366
383
407
427
435
403
341
308
302
301
306
313
317
315
333
331
324
328
328
329
275
543
455
330
328
331
341
355
373
396
414
424
400
338
298
291
290
296
300
302
302
320
324
316
319
322
324
266
533
471
327
327
334
343
355
371
397
416
425
404
340
302
299
300
304
302
308
316
330
325
322
326
330
332
238
583
410
333
339
343
356
370
394
416
433
438
389
329
311
309
309
311
314
324
339
331
325
326
328
327
233
591
425
320
323
329
341
353
376
399
412
416
368
307
285
281
284
288
291
295
304
303
298
301
302
305
221
586
443
307
309
314
324
339
359
386
405
415
383
323
293
293
294
297
305
308
309
329
334
329
332
337
336
272
568
461
329
327
331
336
348
363
386
403
412
383
315
272
256
248
249
250
250
248
258
242
234
230
227
226
131
449
296
207
208
215
228
240
265
287
304
309
260
200
184
186
191
200
208
217
233
234
236
244
252
263
203
504
420
282
286
291
306
326
350
380
405
421
399
337
307
308
314
319
326
334
335
355
359
358
364
367
371
323
551
528
378
376
379
391
403
424
448
469
483
464
399
359
356
355
357
359
360
364
386
382
376
378
382
383
331
579
508
381
378
378
389
401
418
442
461
473
448
387
346
337
335
339
339
346
351
363
352
350
352
352
352
257
595
432
341
341
349
358
374
394
417
432
437
387
328
308
302
306
309
311
315
323
332
323
326
329
333
293
485
489
338
332
337
345
358
375
400
420
436
422
357
313
308
312
310
313
317
328
340
331
336
338
342
340
281
520
402
342
342
353
356
377
402
426
437
437
384
323
305
306
308
313
316
334
330
323
326
329
334
288
524
459
344
338
340
348
361
380
408
428
439
417
351
314
310
307
311
317
329
335
327
330
333
339
328
362
520
363
336
340
348
362
381
405
429
443
433
367
323
314
315
319
321
329
343
335
334
339
342
344
243
651
458
340
342
348
357
373
392
419
434
441
397
334
312
311
313
314
317
335
340
337
338
339
346
341
292
531
395
348
345
358
368
389
410
437
450
449
391
340
324
324
324
334
340
357
344
342
348
350
353
268
643
455
347
351
352
362
378
398
420
432
430
390
321
289
277
271
270
270
280
258
245
241
233
225
115
503
288
185
186
183
189
204
223
245
260
261
206
144
125
125
129
135
148
167
159
161
169
177
188
87
496
296
208
220
233
249
278
310
344
366
376
329
276
265
272
279
291
298
324
330
335
340
350
360
320
532
522
375
373
380
392
406
425
454
478
492
471
403
366
362
363
368
369
378
399
390
388
391
390
389
298
655
503
383
386
391
396
410
431
453
471
476
431
365
340
338
333
337
340
347
360
347
345
347
347
349
250
609
431
340
341
346
356
372
396
421
439
439
385
326
306
302
303
306
311
314
334
328
324
329
330
334
255
594
466
330
331
335
341
357
380
405
425
436
405
337
307
302
302
304
306
309
312
336
335
330
334
338
336
267
573
477
335
335
340
347
362
382
408
427
439
414
345
309
307
310
309
314
317
323
326
339
349
340
342
342
346
297
548
470
349
345
349
358
372
394
419
436
452
432
367
327
315
317
316
319
324
328
327
350
343
339
340
341
345
248
603
419
339
340
346
357
374
396
421
439
442
388
328
308
305
306
308
311
315
320
326
338
329
330
331
333
324
336
515
357
330
331
338
349
365
388
411
428
421
360
307
299
298
298
302
303
312
315
324
338
329
333
336
339
330
369
492
370
341
346
356
368
385
411
436
450
449
384
335
321
320
321
324
329
333
334
353
342
339
341
342
341
241
604
426
337
337
344
351
368
388
412
429
431
383
320
295
291
291
294
298
303
306
305
320
312
310
311
315
317
218
598
396
314
317
322
333
347
373
401
417
424
377
318
293
293
290
294
301
304
308
317
329
318
318
321
328
328
288
505
374
322
323
331
342
356
379
400
416
415
359
300
281
277
280
286
291
296
297
310
320
310
312
315
319
305
368
472
345
320
322
331
347
366
391
416
431
422
362
311
302
303
305
310
313
319
322
323
345
332
333
335
337
339
237
652
451
338
341
346
356
370
391
419
437
447
412
348
319
316
316
319
320
325
330
330
343
350
340
342
346
345
307
489
481
343
335
338
344
358
374
399
423
436
423
362
312
301
298
302
305
308
314
312
336
328
323
325
327
329
250
614
454
326
328
334
341
358
374
402
421
429
402
334
298
291
292
295
299
303
310
311
330
322
321
323
327
329
224
643
435
327
331
340
346
363
386
409
427
437
398
333
306
303
306
309
309
315
320
315
339
340
333
338
341
346
260
629
472
342
344
347
357
368
390
416
435
447
421
357
319
315
313
311
314
320
320
339
339
331
330
331
333
304
456
450
346
329
333
341
353
372
394
413
429
417
352
301
287
284
287
292
296
300
302
319
309
308
311
314
317
210
628
412
313
316
324
334
346
369
393
413
422
383
319
295
294
297
301
305
306
310
324
332
324
326
330
333
322
352
485
366
334
336
345
357
378
402
424
440
434
381
321
308
307
310
313
317
320
341
335
328
329
333
332
276
562
451
337
333
335
343
357
375
399
419
432
409
343
304
297
293
297
300
304
306
324
318
314
319
321
324
244
608
449
322
323
329
339
356
375
402
423
433
408
341
305
304
305
311
315
320
324
344
335
335
338
342
345
267
620
477
342
346
350
359
372
391
417
438
448
424
357
323
320
318
321
325
328
329
353
345
341
346
348
350
294
553
498
350
346
350
357
370
388
413
437
445
432
368
321
317
318
316
319
322
326
344
336
334
335
335
340
262
603
457
333
332
341
348
360
384
411
426
441
416
352
315
311
307
314
320
324
337
338
330
332
334
336
295
493
450
336
326
329
335
347
365
390
406
419
402
336
290
279
275
276
280
283
293
294
282
279
280
280
243
410
422
283
266
267
275
285
302
324
345
359
348
283
239
233
236
240
246
253
260
278
284
283
290
297
303
263
463
470
316
310
317
328
341
361
388
413
427
418
355
312
306
307
309
313
316
318
339
339
338
341
344
346
335
378
512
371
348
352
361
372
390
414
437
451
445
390
338
318
315
318
324
328
333
350
340
339
340
344
343
251
633
460
339
340
347
356
370
390
413
429
439
406
340
307
301
304
306
311
312
328
330
323
327
328
330
321
321
510
363
328
333
339
352
369
391
415
430
428
372
317
303
305
307
310
316
323
340
331
333
334
338
340
235
638
451
339
340
346
356
370
392
414
433
440
405
337
308
305
305
304
305
301
318
309
302
298
298
293
222
520
405
268
261
255
262
267
284
305
322
328
302
230
189
180
175
172
181
191
204
193
190
195
199
205
113
480
309
216
223
234
249
271
299
329
350
357
321
263
243
246
253
263
271
294
294
294
302
312
319
258
571
464
333
338
347
360
377
399
427
450
463
439
374
341
340
342
346
349
362
370
365
367
372
375
362
385
560
397
371
371
377
391
408
431
456
471
462
402
352
340
340
343
341
350
360
353
355
356
361
362
268
628
455
354
358
368
372
386
414
435
449
457
413
343
322
316
315
319
328
334
321
320
321
320
320
226
561
393
307
311
317
325
341
362
385
399
403
352
291
271
268
272
277
287
300
290
291
296
303
299
293
476
339
305
309
318
330
347
374
398
414
406
344
293
284
288
289
295
307
312
305
309
313
318
312
321
498
353
326
329
337
349
369
391
415
427
420
360
310
299
300
303
308
328
324
323
327
332
337
243
632
464
342
346
352
364
379
402
425
442
451
416
356
330
327
331
329
348
350
348
354
358
361
345
439
501
380
361
364
373
385
403
425
449
462
450
389
345
333
329
332
344
351
339
341
343
343
346
278
530
411
341
340
348
357
373
394
415
427
425
370
312
296
297
298
305
321
315
310
312
317
321
231
622
446
320
322
325
334
348
368
393
411
418
380
315
286
284
286
287
297
304
300
304
306
309
279
441
459
325
315
321
328
342
361
386
402
415
398
335
297
293
295
300
309
325
317
318
318
323
324
242
552
398
327
334
337
345
359
389
409
422
421
376
321
300
302
302
308
326
319
314
319
325
323
246
530
404
326
332
336
346
368
389
412
424
421
371
325
309
311
316
322
336
338
332
336
340
341
244
651
456
345
350
356
372
385
408
434
447
453
410
353
334
334
336
339
351
357
348
350
354
358
309
542
500
361
359
362
369
383
400
426
442
452
426
362
325
319
318
320
322
339
330
327
328
331
331
227
597
412
320
319
324
332
345
366
385
400
403
352
296
275
273
275
278
277
299
293
292
292
293
298
210
564
413
292
293
298
310
326
348
371
387
395
363
304
275
270
273
277
280
304
299
293
296
305
308
221
593
425
309
310
318
331
345
369
393
407
413
377
316
292
285
286
292
292
308
310
300
303
306
307
262
480
441
309
302
303
313
327
345
366
384
398
378
315
278
273
274
277
280
281
306
302
300
302
306
310
213
594
431
313
318
326
339
354
376
400
419
426
390
329
306
308
308
312
318
325
342
333
337
342
343
344
268
555
418
350
347
354
369
384
402
428
443
440
392
337
314
314
316
316
321
343
339
335
335
339
338
247
614
445
335
340
348
357
373
394
416
429
435
391
333
309
309
307
311
313
327
333
322
325
331
335
247
623
458
332
332
333
344
360
381
402
424
426
392
325
300
296
299
297
306
315
323
313
313
319
325
288
466
465
333
327
330
341
351
369
397
417
429
407
345
311
306
308
312
315
315
333
331
328
330
333
336
243
612
448
338
340
346
356
371
388
412
429
433
390
331
306
305
303
302
300
308
315
302
302
302
299
276
352
446
300
277
280
282
289
304
325
343
354
339
277
233
228
228
230
236
235
257
255
250
254
260
261
164
526
368
271
274
283
295
311
336
360
377
382
339
284
271
272
273
283
285
306
310
304
311
317
322
251
576
471
334
339
351
362
381
402
428
445
459
426
369
345
343
341
348
348
365
370
365
365
369
372
314
587
511
369
371
374
380
393
416
435
449
461
432
372
339
334
332
334
341
350
354
342
345
344
351
290
590
449
349
345
348
362
380
399
426
441
441
413
349
320
314
312
317
323
343
328
316
314
316
323
250
620
402
324
328
334
342
358
381
409
423
427
383
323
309
306
305
315
320
335
342
327
325
332
337
282
591
433
346
342
352
359
373
392
418
437
442
407
341
312
304
302
304
306
315
315
303
300
301
300
221
589
407
286
284
284
293
309
329
350
365
369
337
269
241
243
242
247
249
270
259
256
260
260
266
181
517
338
272
277
287
299
317
344
367
385
381
324
273
265
266
270
280
294
296
288
292
297
299
206
640
408
308
312
321
331
353
375
402
421
428
373
315
294
298
303
304
318
326
315
325
319
327
235
642
439
329
330
340
354
366
400
428
444
449
405
343
322
315
319
327
344
348
337
337
342
344
251
653
435
335
348
352
362
377
404
433
450
457
399
343
321
318
330
335
352
337
335
337
339
332
350
512
371
340
343
345
362
379
405
425
439
424
358
315
304
302
309
322
324
312
311
317
319
234
646
418
320
323
330
339
356
379
405
422
430
382
321
300
299
302
308
321
313
312
316
322
289
495
441
336
328
331
343
358
381
404
426
438
409
346
316
311
310
312
333
324
320
320
325
327
231
583
407
317
318
324
331
345
364
386
396
391
335
280
262
262
260
262
261
279
272
266
268
273
270
224
452
327
277
280
287
301
317
341
366
382
376
320
275
265
268
274
278
288
299
313
305
307
313
318
252
569
446
330
333
338
351
366
388
412
433
441
405
342
317
314
315
318
324
330
336
351
342
341
347
349
276
590
468
345
344
351
363
378
399
422
440
447
412
351
323
317
318
321
326
332
339
355
347
349
355
359
298
591
493
366
364
376
383
394
417
440
459
468
430
371
341
339
336
334
338
342
339
357
345
337
341
342
285
539
456
329
322
321
325
335
351
374
389
398
363
299
270
266
263
264
266
267
286
285
273
276
281
284
221
477
343
285
289
297
311
330
355
381
397
390
330
282
273
278
280
283
287
307
311
307
309
313
317
242
532
390
325
328
335
345
362
385
408
425
422
366
316
304
303
305
309
311
329
330
323
327
329
332
250
551
406
331
332
339
348
363
385
410
426
425
368
319
303
302
305
307
310
323
333
326
327
331
334
253
573
440
331
332
338
346
362
382
408
424
433
388
333
314
311
311
316
321
325
344
333
330
334
337
304
482
468
345
342
347
356
366
384
408
429
438
415
353
324
319
317
323
326
330
352
345
341
342
350
347
333
505
393
354
359
366
378
397
418
442
458
450
393
351
344
343
348
346
351
360
374
364
365
366
371
303
593
493
364
361
360
368
377
395
413
427
429
388
326
293
287
279
275
278
278
290
276
267
266
265
240
355
389
274
253
258
265
276
295
317
333
346
328
267
230
224
222
224
234
240
257
259
251
254
261
261
176
516
366
270
276
284
294
314
338
363
382
386
342
289
280
281
283
291
296
310
315
311
313
322
324
239
595
421
333
340
348
359
375
401
428
447
448
397
347
335
335
338
343
346
360
367
361
363
368
373
285
624
459
371
372
377
387
400
423
445
462
466
413
358
345
349
352
352
356
374
377
369
377
378
380
297
625
482
380
378
387
396
415
432
455
464
467
415
361
345
342
340
346
351
365
351
342
343
344
327
404
463
355
332
333
339
346
368
388
406
416
392
326
289
282
281
281
283
292
294
286
285
288
292
198
577
391
290
292
301
311
329
351
374
395
399
348
298
284
286
288
291
295
314
310
310
313
316
307
351
479
349
326
328
341
355
374
400
423
438
424
363
329
322
322
325
332
345
348
343
347
353
355
265
604
452
349
352
360
367
383
407
425
442
441
390
337
316
314
311
318
328
329
318
315
316
318
235
598
429
314
316
321
330
346
368
390
408
412
367
309
288
287
287
292
300
316
310
310
313
319
296
416
474
334
322
326
333
345
366
392
412
426
405
343
308
306
306
308
310
326
324
318
320
325
327
233
587
426
317
320
325
337
350
371
391
406
407
361
311
285
277
281
286
294
304
288
289
288
291
263
394
408
304
287
290
294
309
327
350
367
379
360
298
262
258
260
265
270
290
288
287
292
297
304
205
598
417
310
316
322
335
351
374
400
418
423
377
321
304
305
306
309
315
335
332
332
337
346
342
320
526
391
357
360
370
381
402
426
446
458
450
392
350
342
343
342
346
364
361
351
354
358
359
287
614
464
349
349
351
362
375
396
415
429
433
397
336
307
304
303
308
317
331
319
317
317
321
315
313
486
356
324
327
338
351
369
393
417
429
415
354
313
307
311
315
315
334
333
331
335
339
345
256
622
465
344
348
354
361
376
398
420
434
441
397
338
313
308
312
314
323
334
323
324
323
326
317
320
453
352
313
317
321
334
350
371
388
400
386
324
282
265
267
270
277
294
281
274
279
283
285
193
531
373
281
289
294
304
322
345
368
385
382
331
279
266
265
271
274
291
298
292
295
299
305
277
428
450
323
314
318
329
342
363
389
410
421
400
338
303
298
302
308
308
332
328
325
330
336
340
260
600
467
345
350
358
369
385
408
432
452
459
419
362
339
336
340
345
349
362
370
363
369
370
377
351
468
507
388
378
380
388
402
421
443
461
473
452
390
350
341
338
338
338
344
358
346
340
341
341
341
246
598
437
334
338
341
350
363
383
402
415
418
372
317
294
293
296
300
303
302
317
322
312
313
316
320
283
452
446
328
320
323
333
344
358
382
403
411
393
333
293
285
288
292
296
300
299
324
319
317
324
325
331
238
596
442
333
336
344
354
373
395
418
438
442
402
345
322
317
318
323
329
332
342
351
336
337
337
338
306
470
443
347
337
338
346
357
377
396
414
421
403
339
299
291
292
296
302
307
312
327
320
317
322
324
317
316
490
361
330
332
342
353
370
392
414
426
417
356
311
300
297
300
304
307
307
322
327
322
326
329
333
249
605
459
337
337
343
353
366
385
409
422
431
395
334
307
306
308
310
314
320
324
340
336
337
341
344
336
295
512
389
337
340
341
350
362
385
406
416
408
355
303
287
282
278
283
277
294
291
279
275
277
278
221
483
372
265
259
262
270
281
302
323
337
346
314
250
217
212
215
217
226
236
253
240
242
246
251
246
263
419
298
268
274
287
300
323
353
379
395
382
323
284
276
278
281
286
295
311
312
311
316
322
328
229
613
431
329
335
341
353
370
394
418
434
436
390
332
315
313
316
318
318
331
341
337
339
343
348
321
456
495
361
353
357
366
382
398
424
447
460
440
374
339
332
332
335
333
344
353
336
337
339
341
334
329
453
371
330
331
338
347
361
382
403
410
399
338
292
281
278
281
286
295
307
294
294
296
300
299
228
510
361
303
306
313
324
340
366
389
405
401
345
295
285
285
289
294
302
319
312
312
316
321
326
232
583
412
330
335
343
355
374
394
417
434
435
388
334
322
320
325
329
341
356
345
346
348
352
353
280
554
425
355
362
370
380
399
423
442
454
447
394
341
324
320
322
325
334
345
329
330
330
334
338
260
546
400
333
335
341
352
365
390
409
418
416
362
314
297
299
305
308
317
333
326
322
330
333
336
245
576
410
337
340
349
357
377
399
423
441
439
385
336
318
316
312
317
331
337
325
330
328
333
318
355
439
363
331
334
342
353
370
391
405
413
401
342
300
289
288
296
298
321
316
308
311
315
317
250
553
439
317
317
321
330
347
368
390
407
414
380
321
294
287
292
297
304
324
319
318
322
326
328
237
602
435
329
333
340
349
367
390
412
426
431
389
332
314
310
310
324
357
359
345
330
325
324
329
244
551
407
334
338
348
362
377
400
422
439
433
376
327
311
306
310
310
332
329
319
319
317
322
266
541
432
328
328
337
345
362
381
402
415
422
389
331
308
304
308
314
322
337
326
327
332
336
