364
380
384
378
347
314
312
316
316
332
325
318
320
326
326
259
522
377
322
328
334
345
367
384
386
381
352
319
315
320
323
339
329
327
332
331
328
303
472
361
325
333
342
348
369
384
385
372
341
310
309
305
314
322
315
312
318
317
301
378
420
326
312
312
323
333
356
369
371
360
322
304
301
299
316
317
304
308
315
316
263
529
425
316
320
326
340
352
378
383
382
362
334
313
319
317
337
333
324
330
330
332
254
585
421
321
326
329
341
356
380
379
379
355
317
308
313
309
329
323
316
324
324
325
249
569
414
320
323
330
343
354
378
385
382
353
320
310
312
307
329
318
317
317
318
319
240
538
390
309
316
320
334
345
363
367
362
336
301
296
293
297
315
302
295
300
301
304
226
525
373
297
307
317
329
348
367
376
370
342
314
310
312
315
333
326
319
324
323
327
241
571
399
317
321
330
337
361
379
385
381
357
321
311
321
322
339
335
326
336
333
336
250
569
404
322
326
328
342
358
372
381
375
343
313
301
306
305
322
313
307
310
314
314
251
500
365
306
312
320
331
347
364
365
360
333
303
301
299
310
326
312
315
317
322
319
301
469
359
323
329
340
351
371
388
387
382
345
320
318
321
327
340
329
325
330
329
330
281
491
365
319
326
329
342
361
377
381
372
340
312
311
314
316
330
321
319
324
327
326
272
488
370
326
332
338
347
361
375
382
373
340
315
309
308
318
325
314
314
319
321
315
284
459
354
311
316
320
332
351
368
371
360
335
299
294
299
306
315
306
303
305
311
300
330
440
334
310
314
326
339
359
373
374
368
330
308
309
311
312
331
325
317
321
326
321
288
485
358
321
328
334
351
369
386
387
379
345
316
312
316
319
332
325
322
324
328
334
260
522
383
329
330
335
346
354
380
380
373
336
312
314
311
305
328
317
320
315
324
323
249
504
378
316
311
322
335
350
369
369
367
339
307
300
307
306
329
318
316
320
328
327
258
499
384
324
328
339
350
361
382
384
379
345
320
314
312
316
332
326
323
322
322
328
246
557
418
314
316
321
333
350
368
370
371
349
319
309
308
311
325
324
323
321
320
319
275
500
430
316
316
322
330
345
362
376
373
357
321
305
302
301
318
321
310
313
313
315
278
490
420
317
312
321
329
347
358
375
379
355
321
305
303
309
322
330
320
318
322
325
302
426
439
331
324
327
336
350
371
382
380
368
340
316
315
320
325
336
325
324
326
330
328
277
487
368
325
331
339
347
370
385
389
384
349
321
317
324
320
338
335
331
330
333
335
252
542
391
324
323
330
343
361
380
385
373
347
317
309
308
307
328
321
311
314
317
319
240
543
399
308
316
320
334
347
370
373
367
344
309
301
309
310
324
318
309
315
315
318
240
545
396
311
318
327
337
357
375
378
368
344
316
305
311
316
332
330
316
316
328
326
252
580
429
319
326
327
336
358
373
381
381
361
323
310
308
314
327
327
324
323
328
324
273
540
445
321
322
330
337
354
375
381
384
369
330
317
326
322
334
337
331
331
332
332
267
550
440
321
316
327
325
347
365
373
371
351
312
300
300
300
319
312
302
304
308
308
233
509
377
303
303
312
324
345
361
366
364
336
307
304
306
310
330
318
318
318
329
329
259
524
384
324
331
336
352
370
386
392
384
355
326
320
325
327
341
336
326
330
330
334
274
510
371
324
331
332
346
366
377
378
374
341
311
308
310
317
329
323
323
332
329
320
292
479
353
317
328
334
344
360
375
379
373
344
318
314
314
326
329
322
326
346
314
319
322
448
346
320
316
327
337
358
370
371
361
327
303
301
296
311
316
310
301
304
310
275
458
411
305
306
314
315
336
355
368
367
354
320
304
308
304
320
326
315
319
319
325
289
488
441
327
326
329
336
351
370
382
385
368
331
316
316
317
329
334
325
331
332
335
300
485
453
331
324
330
337
350
371
381
380
364
328
303
308
305
318
322
314
320
325
322
294
442
443
325
320
324
336
341
364
378
371
366
329
313
311
313
318
330
318
318
321
320
292
453
434
321
319
323
325
345
364
380
376
362
327
308
305
309
313
318
314
311
320
319
276
504
433
311
316
320
332
348
368
382
378
363
328
311
308
314
323
328
319
321
324
327
288
494
450
327
327
329
338
354
378
386
387
367
334
311
314
316
321
330
319
323
332
326
288
492
460
335
327
340
339
357
373
378
381
368
327
310
306
307
321
324
312
312
315
320
263
509
416
297
296
310
314
334
348
359
360
348
309
294
292
295
308
309
301
300
306
308
230
567
405
309
312
324
332
347
375
377
375
353
321
318
311
321
333
338
337
326
334
330
251
603
414
324
330
335
343
365
378
387
381
353
315
305
313
316
334
333
321
323
328
325
245
563
403
316
322
332
342
361
376
389
375
351
318
309
315
312
327
316
316
320
324
317
237
507
375
307
315
322
334
354
364
373
364
330
303
295
300
318
317
310
304
305
308
308
297
449
341
309
312
321
335
351
368
372
360
325
302
304
304
312
326
318
314
320
327
321
299
477
355
317
324
330
346
364
380
382
377
346
320
315
323
334
341
338
338
341
342
332
332
493
366
333
340
343
364
373
389
393
379
349
326
330
319
326
335
328
324
328
327
306
404
448
314
312
314
321
335
355
367
365
348
320
297
293
293
312
315
297
311
310
311
250
521
414
300
308
309
317
338
357
368
369
354
316
306
306
315
331
331
321
328
327
335
261
578
437
321
321
329
338
352
371
375
376
353
312
303
302
306
324
320
314
318
320
326
252
565
422
310
317
322
328
349
376
376
372
351
313
312
306
310
325
321
312
320
320
318
248
576
423
311
315
322
332
347
363
374
373
352
318
300
297
301
320
312
307
309
315
309
231
573
402
304
310
313
325
345
363
368
368
344
317
300
302
306
320
320
314
315
317
324
243
589
424
315
319
328
338
356
379
382
382
356
326
311
312
319
327
338
327
332
330
333
267
567
447
327
322
329
337
353
368
375
376
351
316
300
306
302
319
322
310
314
318
320
253
558
437
313
310
313
324
339
360
369
369
346
309
297
305
302
324
321
317
320
321
325
239
590
420
319
326
333
342
359
377
385
381
361
324
317
324
321
341
331
330
330
330
334
273
521
382
331
335
339
351
373
382
384
383
348
319
318
318
325
335
321
330
332
330
270
534
448
318
324
326
331
352
369
373
372
356
323
307
304
311
321
313
310
317
318
306
382
428
331
319
323
335
348
370
379
378
367
329
311
307
314
330
322
314
320
324
321
279
483
368
321
326
332
342
363
373
377
370
334
312
307
309
328
318
316
321
324
324
236
578
411
315
321
323
337
351
369
376
368
345
316
305
309
321
328
320
322
323
329
265
554
449
326
340
342
349
360
379
384
378
354
317
308
305
308
317
309
310
306
315
284
438
420
312
306
312
320
337
352
363
364
354
317
303
298
308
318
306
308
304
312
307
307
442
340
314
323
332
345
366
379
381
369
338
316
319
317
332
331
322
327
328
336
251
593
430
323
331
336
338
364
380
383
383
354
317
309
310
313
327
319
317
319
323
311
327
463
347
328
327
333
344
368
381
377
359
329
306
301
303
319
313
307
312
314
319
240
565
409
310
317
325
334
355
372
381
373
352
313
304
308
314
328
310
310
313
315
307
336
443
337
318
318
331
341
367
383
379
368
333
310
315
313
318
334
316
319
323
324
286
481
450
323
322
325
333
353
374
378
372
361
319
313
307
315
317
330
323
324
328
330
258
578
441
318
331
335
340
361
378
387
388
366
334
311
313
314
326
320
315
318
317
316
246
490
364
308
312
320
334
349
363
369
364
330
298
296
298
306
312
304
299
304
305
259
489
413
302
302
309
324
336
360
372
368
349
318
299
309
308
328
322
319
321
322
326
249
550
401
320
327
332
343
367
383
383
377
355
315
307
316
317
333
320
315
326
323
304
398
443
338
316
328
336
344
365
383
379
369
327
313
314
312
327
329
318
324
330
330
251
596
430
327
332
335
349
366
383
387
387
360
320
313
313
316
327
323
321
321
320
311
329
456
339
314
318
325
337
359
380
378
365
330
307
302
303
316
326
313
318
325
325
261
549
436
314
325
324
334
352
371
376
379
358
322
309
309
314
328
320
316
324
323
316
346
431
340
319
321
331
341
365
374
376
364
327
305
301
301
314
323
306
308
314
315
255
544
420
311
318
324
333
350
368
375
376
357
321
312
308
310
326
326
320
325
327
330
249
585
427
322
333
340
348
365
390
393
389
364
334
318
317
317
338
333
326
326
328
330
250
566
404
317
324
328
339
353
370
375
369
345
309
301
302
300
321
318
312
319
329
323
246
520
381
311
317
323
336
353
374
377
373
343
310
309
308
305
328
317
311
316
320
317
327
433
346
323
325
334
348
370
384
383
371
336
305
303
304
310
326
318
318
320
320
312
320
453
343
315
316
328
336
358
374
376
365
330
311
304
312
308
329
323
319
322
324
325
238
554
400
319
328
332
347
363
388
394
384
357
326
318
316
318
325
339
322
324
330
326
257
566
427
314
318
319
329
345
365
377
372
348
314
298
295
300
315
314
309
307
313
310
240
551
416
310
315
319
329
348
370
375
373
353
316
307
307
319
322
335
328
326
332
334
300
487
452
332
330
333
342
357
379
389
389
370
330
311
312
314
313
330
323
318
322
320
310
322
456
342
313
322
323
342
356
381
381
366
334
306
304
307
305
326
312
310
315
314
318
265
458
355
312
312
322
332
353
373
377
366
339
307
300
297
311
329
315
315
316
318
315
280
461
360
312
319
328
343
361
379
379
373
341
315
309
312
314
336
325
321
324
328
326
259
514
375
323
324
333
342
361
380
384
378
346
314
311
315
313
330
325
324
325
329
332
257
523
392
329
332
347
352
377
394
393
391
356
320
317
320
314
331
319
312
317
321
309
303
435
335
308
306
319
327
354
364
364
357
321
291
290
289
310
304
300
308
308
312
267
505
421
316
319
325
334
351
371
385
387
365
330
318
318
324
337
339
333
332
336
340
268
595
442
331
336
342
351
361
384
390
386
361
323
309
311
313
331
320
314
316
319
319
249
498
368
313
318
327
342
364
382
384
375
344
312
309
307
320
328
316
319
327
333
299
463
446
329
323
327
337
348
366
374
379
361
327
303
303
308
318
313
309
306
312
311
242
478
361
302
307
316
328
338
361
364
359
325
297
296
298
308
326
312
308
313
322
290
434
431
325
312
316
330
342
366
376
381
369
329
308
305
314
326
336
316
328
322
329
282
516
448
323
327
336
344
362
377
390
391
369
333
312
312
313
322
329
322
317
325
326
278
508
442
319
323
328
338
359
377
388
391
367
323
311
307
310
314
326
315
313
318
316
284
469
432
321
322
321
334
350
369
378
390
370
329
313
309
312
322
329
323
312
324
327
285
474
432
321
317
325
334
352
367
383
379
364
322
303
305
308
311
328
320
318
320
320
313
342
454
331
314
321
325
341
363
376
378
367
334
305
300
311
307
326
323
319
328
325
329
252
513
384
317
327
331
345
364
384
382
380
355
321
312
314
310
333
323
318
318
316
322
235
519
384
310
318
314
329
350
369
374
366
339
301
303
300
295
319
311
304
305
311
313
233
528
381
308
310
318
333
354
371
379
378
351
316
310
310
315
329
332
323
327
332
332
245
582
402
325
325
330
342
360
375
384
377
349
308
309
311
307
326
325
320
321
327
327
248
584
429
322
334
337
342
359
378
385
382
351
318
306
310
306
324
327
314
318
324
323
257
560
426
310
324
326
338
357
368
381
378
353
316
304
301
303
310
323
309
312
311
315
277
486
433
320
314
323
331
347
368
386
379
364
325
305
314
311
316
333
325
323
320
328
321
296
468
350
318
326
327
340
365
379
385
383
344
320
313
318
317
336
328
316
321
326
325
245
550
392
317
315
320
344
352
374
383
377
347
312
300
299
298
325
321
311
311
315
311
234
559
400
302
313
323
332
348
374
373
373
358
318
307
308
316
326
333
321
322
327
329
278
544
437
327
328
331
344
363
379
390
390
372
333
318
319
315
319
337
325
321
327
327
325
289
477
352
318
321
327
346
362
374
384
381
342
312
307
314
307
324
311
312
313
316
316
242
525
378
311
318
318
329
352
372
376
377
348
316
304
305
311
330
321
313
318
318
324
238
579
395
311
315
324
335
348
371
371
375
346
311
303
307
307
324
321
310
320
316
318
265
533
430
317
317
319
331
346
366
380
378
363
329
311
313
319
317
337
328
324
330
331
332
290
491
366
328
333
334
345
369
386
395
391
354
322
314
316
307
335
323
315
313
321
319
237
514
385
301
316
314
326
344
359
366
359
333
300
294
293
293
319
311
297
307
309
316
233
540
392
307
315
326
334
352
376
385
380
355
325
317
321
319
333
340
329
332
337
338
279
565
452
327
331
335
350
357
375
388
382
363
322
310
311
318
326
336
322
318
321
325
301
426
441
330
322
322
333
343
365
385
377
365
332
307
303
306
311
326
316
310
316
317
309
371
432
337
319
322
335
343
361
373
386
360
329
301
300
308
310
329
316
313
318
321
312
312
462
340
317
322
329
343
366
376
381
374
331
306
306
305
307
325
319
322
319
324
323
260
503
368
321
318
328
340
364
380
388
381
347
318
319
317
317
341
331
323
332
332
339
272
510
379
326
333
336
348
370
400
392
382
351
314
314
309
307
319
315
312
310
313
308
302
428
336
297
306
313
326
343
356
369
353
322
298
294
289
309
310
299
301
305
304
259
491
421
307
310
322
328
347
373
381
380
363
332
314
316
320
337
332
320
331
326
332
251
581
418
322
332
330
343
362
381
380
376
348
317
308
309
319
332
318
316
322
324
311
367
458
333
319
324
335
345
365
382
377
363
327
309
313
310
332
327
319
326
327
333
253
596
434
316
329
336
339
357
378
384
383
355
318
305
308
313
321
312
315
316
321
297
412
451
330
330
329
334
347
362
381
376
368
327
305
308
309
319
313
309
312
315
313
265
465
357
311
314
322
335
353
366
374
363
331
309
301
306
327
320
309
314
317
321
234
559
399
314
314
323
337
356
377
384
374
348
313
308
309
320
330
319
318
323
325
273
536
437
319
322
329
334
348
371
379
378
360
320
307
313
321
330
322
323
323
331
306
437
449
332
332
335
344
359
380
391
391
376
340
319
323
328
341
327
325
329
331
322
327
456
346
320
320
328
342
362
375
382
369
334
313
309
307
319
313
309
305
313
312
237
496
377
305
308
313
324
338
358
364
361
330
301
296
294
315
311
304
305
312
310
239
554
408
305
315
316
329
348
371
371
368
342
315
304
307
314
331
315
319
319
326
304
391
435
329
318
323
334
344
368
378
381
362
332
306
308
306
326
327
315
318
322
326
240
570
405
316
323
332
341
366
381
385
382
352
321
315
313
322
337
326
324
331
330
313
396
446
346
332
331
341
355
377
381
388
367
332
310
308
305
327
319
309
308
315
314
234
544
392
305
306
317
325
349
368
372
367
338
310
298
301
312
315
309
310
311
321
300
425
431
331
325
328
332
350
373
383
382
369
332
314
312
318
333
330
322
321
324
324
250
569
427
315
316
323
333
351
368
380
377
354
316
300
307
304
327
319
314
315
322
323
244
541
397
327
330
333
341
360
372
386
381
345
321
307
313
316
329
323
319
319
325
308
391
435
328
312
327
328
344
365
371
377
358
323
301
300
300
316
307
301
304
309
308
238
554
414
304
309
319
326
348
365
376
376
347
313
305
303
304
328
322
314
320
325
328
247
546
395
322
325
338
350
367
386
390
388
354
326
319
324
324
340
332
327
329
331
331
292
493
365
322
327
334
341
364
385
400
379
343
316
311
315
319
326
315
317
320
318
262
504
429
307
305
311
321
331
353
367
362
346
309
296
291
300
317
312
300
306
309
308
236
497
366
306
308
317
332
356
369
374
369
338
312
305
309
319
330
321
321
318
324
310
374
448
333
317
321
330
344
363
380
377
367
329
308
310
307
324
325
314
322
328
328
254
573
434
320
325
332
339
356
375
382
381
361
326
315
315
320
338
332
326
331
335
335
291
500
371
330
331
338
346
366
381
382
374
336
312
304
304
319
319
308
307
311
312
254
534
418
306
311
319
326
342
358
369
370
348
308
297
301
309
326
315
313
310
320
319
242
536
385
318
321
332
343
363
380
388
382
344
319
313
319
323
341
329
330
333
332
336
305
489
358
328
330
338
350
369
385
384
369
340
309
309
311
321
326
321
319
321
324
290
439
446
323
317
323
335
343
367
379
381
362
323
303
302
302
320
321
310
311
318
319
256
546
429
313
316
318
327
344
365
376
375
349
311
296
297
299
315
312
302
309
308
312
228
560
397
306
315
324
335
350
370
381
372
342
310
306
310
311
331
322
318
325
328
328
250
539
385
323
326
330
345
362
381
387
380
346
316
313
317
318
334
339
329
332
333
336
285
512
378
339
340
342
348
370
382
387
378
347
309
308
311
315
326
312
313
317
316
287
452
432
309
312
314
325
338
361
366
370
354
318
290
293
297
315
311
304
308
311
316
247
566
429
315
324
330
338
362
378
387
380
358
320
315
308
315
333
328
319
321
326
327
242
591
414
315
320
323
330
351
372
377
377
345
312
303
308
302
326
319
311
316
324
328
245
558
411
317
324
328
340
364
375
379
375
347
311
305
304
307
328
314
311
316
316
313
261
470
361
315
319
322
330
352
371
374
362
331
307
299
302
316
323
311
308
315
315
311
352
437
340
320
321
333
347
366
379
380
371
335
311
310
311
318
333
323
325
330
330
316
404
456
342
334
337
346
356
377
396
393
391
357
324
324
328
337
335
327
327
328
331
278
496
429
310
311
316
327
336
360
368
368
348
314
289
295
296
314
305
300
300
308
309
235
553
398
308
313
320
331
346
368
372
372
343
310
304
311
317
335
324
320
323
329
329
264
525
383
327
329
339
350
368
385
391
383
347
317
313
312
317
329
316
319
324
323
312
354
447
339
318
325
339
347
367
388
380
373
330
311
302
305
321
318
314
314
320
315
258
541
421
309
309
317
332
343
365
373
375
347
318
297
306
304
320
312
308
312
314
320
257
499
372
317
320
332
341
360
376
382
373
338
306
302
310
319
326
321
319
320
327
318
359
467
339
325
327
335
351
371
384
385
376
332
310
304
312
320
332
321
317
327
323
287
495
450
327
331
335
342
355
378
390
385
369
329
314
307
309
325
326
314
319
321
319
232
566
401
308
307
314
320
342
366
368
363
336
298
289
292
301
321
306
303
307
310
307
243
486
362
304
316
322
340
358
374
377
375
338
314
310
311
321
334
328
328
331
333
329
332
481
361
335
338
341
358
381
392
397
383
345
320
315
315
319
331
319
319
319
316
296
409
429
319
310
311
321
335
357
371
368
352
320
297
294
295
309
310
303
309
309
317
272
507
434
314
316
327
336
354
379
390
383
369
334
315
322
320
335
344
327
327
326
333
280
531
439
319
319
327
337
352
368
385
386
377
333
318
308
316
327
324
318
316
318
324
262
528
427
311
311
319
332
343
365
375
376
356
315
300
302
300
319
315
311
312
314
319
242
575
408
310
316
320
334
351
371
379
375
348
313
304
305
301
331
321
321
313
319
323
239
595
406
315
315
329
336
358
371
385
371
349
312
300
306
304
330
331
323
323
331
330
247
579
413
319
320
325
336
356
377
380
376
350
312
304
306
303
322
320
302
318
313
315
255
462
356
304
308
318
327
349
365
368
359
324
297
298
302
305
321
311
308
318
319
313
311
466
349
320
324
328
349
364
377
383
378
342
320
314
322
328
341
333
331
334
339
331
287
493
376
332
333
342
354
371
394
393
389
348
319
315
319
314
329
318
313
314
321
317
259
470
366
302
310
321
334
348
368
369
359
334
300
297
296
301
315
307
307
315
308
305
297
444
347
310
319
323
351
358
377
382
372
335
317
314
321
326
345
331
330
337
334
335
294
487
369
328
333
340
353
371
385
386
379
346
318
315
315
321
333
331
326
325
321
324
301
467
353
320
319
330
343
359
383
379
371
339
307
306
309
316
321
319
317
324
325
309
418
438
335
324
326
338
344
368
383
383
370
330
313
310
312
330
331
318
322
324
327
269
550
430
316
317
319
334
346
369
365
366
350
314
304
303
303
324
316
313
311
311
320
230
581
399
310
319
324
333
353
379
380
372
346
314
304
309
315
327
319
315
325
326
319
343
444
346
326
326
338
347
367
380
379
373
342
315
310
306
322
319
312
315
321
317
238
549
406
312
318
326
334
351
372
375
373
349
316
308
309
313
325
313
316
320
325
304
394
446
331
320
326
331
346
364
372
379
362
332
313
312
315
330
318
320
320
323
330
286
478
360
318
318
324
332
352
361
363
357
324
297
292
300
311
299
300
301
306
303
288
412
341
303
306
317
325
344
357
360
351
322
302
300
306
321
310
311
317
320
316
318
448
351
322
328
343
348
371
386
388
375
344
319
316
324
335
327
322
329
326
325
278
485
363
323
323
329
341
362
377
380
370
336
312
310
314
332
325
319
324
326
321
297
461
353
322
333
336
348
365
383
384
366
340
313
308
318
329
318
313
317
319
312
300
437
346
318
321
328
341
358
374
377
366
336
310
306
315
325
317
306
308
316
309
321
434
337
316
314
328
337
363
376
374
368
332
311
308
312
328
323
317
320
324
321
263
498
372
325
328
338
351
372
386
390
390
360
326
320
321
332
331
319
324
322
324
245
564
416
314
313
324
325
344
361
373
366
342
308
299
299
308
315
296
300
302
304
238
538
411
302
308
314
327
346
365
374
372
353
319
312
308
318
330
322
320
327
328
316
384
451
343
324
332
335
354
375
383
389
373
338
314
313
310
332
327
316
322
323
331
242
576
413
320
327
323
335
358
367
378
365
340
312
304
303
313
323
305
309
305
313
265
506
430
310
301
309
322
334
360
368
364
349
310
295
293
296
321
315
310
305
319
317
260
504
367
319
323
330
341
365
381
380
380
340
316
312
308
313
331
323
319
318
322
285
461
443
315
314
320
332
344
365
381
379
366
323
306
308
308
325
329
318
324
329
327
250
571
417
323
329
344
352
366
387
397
387
362
326
321
318
325
339
325
321
328
329
307
394
435
330
313
315
327
337
354
367
368
358
316
295
291
294
311
306
297
303
308
311
230
562
408
307
314
323
333
350
373
375
372
345
313
308
311
309
334
329
321
327
326
327
268
509
380
329
330
338
353
372
390
390
384
350
317
316
316
318
333
328
325
327
330
307
409
454
325
320
319
328
342
361
376
366
364
323
298
295
299
316
313
299
310
312
317
235
512
379
310
314
320
341
355
367
374
367
341
310
306
309
326
327
321
321
323
330
281
530
441
325
325
332
341
354
374
386
382
361
319
307
303
305
324
323
311
316
316
319
243
520
377
315
318
325
335
355
373
384
381
347
311
307
308
314
326
311
315
318
320
294
441
420
324
318
323
336
349
369
383
383
367
329
310
311
314
336
324
313
321
320
319
244
564
404
313
318
325
336
353
374
382
375
343
310
304
311
311
329
319
312
316
318
315
297
470
352
314
319
330
340
362
375
379
372
334
310
309
309
321
325
323
321
325
328
292
473
444
330
328
336
347
363
384
393
391
374
333
316
311
308
321
325
317
315
313
319
247
546
416
306
307
318
324
340
366
378
376
353
310
296
298
297
321
306
304
311
318
314
245
512
375
317
322
332
339
365
383
388
383
348
321
312
315
323
340
332
332
331
332
327
328
473
352
325
330
337
350
377
386
389
373
336
308
309
306
313
330
324
324
325
323
304
419
449
324
317
321
327
339
362
373
372
364
322
301
295
299
312
318
300
308
318
314
237
574
407
306
316
327
335
351
374
381
378
357
319
308
314
317
336
325
322
325
324
328
251
518
377
319
328
327
341
359
384
377
375
349
312
305
309
308
331
316
311
316
320
307
315
442
337
314
319
324
341
361
373
379
368
329
312
301
307
317
319
313
313
321
324
290
467
426
320
320
324
332
351
372
380
385
367
328
308
309
311
330
331
317
321
322
324
269
541
438
317
326
321
332
351
374
382
384
363
326
309
309
309
333
339
323
323
329
328
270
534
439
321
324
332
336
349
376
378
385
364
321
311
309
309
329
317
308
314
314
316
236
554
396
307
304
313
327
344
362
368
363
339
302
290
295
300
319
308
305
310
311
312
246
496
362
310
313
319
334
356
372
372
368
337
303
304
307
308
326
319
317
324
326
320
315
472
354
331
329
339
349
371
384
387
381
343
310
308
311
320
323
313
315
317
320
301
384
424
327
312
317
327
340
359
367
368
360
326
299
296
302
316
322
307
311
315
321
262
522
430
315
316
326
333
353
378
385
387
361
328
314
316
317
339
336
324
327
328
338
256
593
438
325
331
335
346
360
378
388
377
361
321
315
309
320
328
327
320
323
323
326
236
580
412
317
318
322
332
348
370
374
366
346
307
301
299
306
329
314
311
311
319
317
259
496
366
311
315
324
334
352
373
374
366
340
312
309
313
327
330
323
322
324
327
288
488
439
319
321
322
334
349
366
380
381
361
324
307
307
311
326
327
316
323
320
324
241
594
416
315
323
323
339
356
371
384
376
350
312
304
309
313
330
319
318
327
331
327
314
470
354
325
325
333
346
365
376
387
369
340
311
303
306
320
315
302
305
306
306
228
564
402
304
302
312
322
344
360
366
361
335
305
295
295
313
318
310
308
314
317
295
385
435
327
316
320
336
349
372
385
385
373
335
319
318
315
336
334
332
333
334
334
249
589
426
323
325
333
343
360
379
383
380
354
322
320
314
320
329
318
319
322
324
287
456
438
315
307
314
324
337
356
367
374
351
316
301
301
309
313
308
300
307
307
300
381
420
321
303
307
320
336
363
370
371
359
324
307
303
311
328
313
321
314
322
318
285
484
355
320
322
333
346
363
383
381
372
339
312
312
312
331
326
321
324
320
329
235
562
398
318
331
327
341
355
371
383
374
342
312
311
306
324
324
312
316
317
318
254
564
428
317
319
331
337
351
370
385
378
357
317
308
306
319
324
311
312
315
316
264
526
417
315
313
317
326
346
371
377
373
357
320
308
304
317
325
317
314
321
323
317
325
459
348
320
327
338
346
372
379
383
377
338
316
315
316
329
333
329
330
332
333
273
561
439
329
330
337
346
360
376
393
387
367
326
315
314
315
334
326
320
320
324
319
247
515
381
315
314
322
339
353
367
379
364
337
307
304
305
311
321
313
307
314
314
281
446
425
315
304
312
319
337
354
372
368
356
322
300
302
307
325
323
318
321
326
328
244
599
415
322
326
329
342
360
376
384
374
352
312
305
308
306
329
320
313
321
323
320
249
509
371
315
320
327
338
357
373
377
370
341
311
311
314
320
325
314
319
319
318
289
441
432
322
312
322
335
347
365
374
377
363
324
307
308
304
330
318
315
320
317
322
240
559
389
314
316
322
325
345
365
372
363
336
305
304
305
309
325
316
314
315
325
310
370
453
328
316
327
329
347
365
378
380
368
329
311
307
311
325
328
322
319
321
327
264
567
429
323
316
331
339
354
372
376
381
357
328
309
317
314
332
321
320
318
321
312
261
488
354
308
312
318
332
347
361
369
358
329
303
303
297
313
314
303
308
312
320
253
541
422
311
319
322
327
344
374
375
374
359
324
318
318
316
343
327
327
331
329
331
263
535
381
329
331
335
349
366
376
382
375
340
313
309
310
320
326
318
312
319
320
290
437
432
321
316
321
330
344
369
377
373
363
328
315
314
313
330
328
317
331
318
320
248
565
417
315
323
325
337
355
378
381
377
355
312
305
309
313
328
318
314
317
322
309
331
445
337
314
320
319
331
360
374
367
364
331
301
303
308
319
325
314
316
320
322
261
542
432
314
320
327
340
354
376
382
378
357
326
314
313
313
332
333
326
326
332
332
244
586
423
321
332
332
342
365
379
385
380
358
328
321
315
317
334
322
320
315
321
316
274
460
347
306
312
318
328
350
362
366
359
328
300
295
297
310
318
304
305
310
313
255
537
420
304
306
317
327
343
363
370
371
351
318
310
307
315
336
326
325
322
325
332
248
542
393
323
328
337
347
363
384
384
377
349
318
308
316
312
333
325
318
321
327
325
299
475
348
321
323
325
337
353
373
379
375
340
311
308
298
315
323
313
313
314
319
278
482
426
319
312
320
332
344
365
372
377
359
323
308
306
308
330
319
315
319
325
319
237
543
392
310
314
322
328
356
372
374
369
334
312
299
309
309
328
315
313
316
317
308
328
452
339
314
323
330
344
366
383
379
372
328
312
307
313
324
334
320
324
324
328
296
467
448
326
325
330
337
354
373
387
386
376
341
321
322
312
332
332
317
321
319
319
246
558
416
307
311
317
329
341
363
364
363
341
309
292
301
298
316
308
303
305
312
306
273
454
353
312
314
321
333
357
373
377
367
338
313
310
316
325
333
326
318
326
332
300
442
448
328
328
326
339
353
372
383
386
365
333
314
309
311
320
328
321
321
320
326
273
513
436
316
318
331
337
352
369
379
378
355
318
301
301
305
318
315
308
314
310
311
234
569
404
300
308
317
326
348
360
372
369
339
309
299
306
311
329
318
309
312
319
319
257
494
363
310
317
326
335
354
370
371
369
335
308
297
307
312
331
317
319
320
321
315
334
450
344
315
320
324
345
360
375
379
364
330
311
311
312
312
330
317
321
322
325
309
447
450
329
325
327
338
344
373
380
383
370
332
312
310
317
327
324
311
314
317
321
239
555
398
310
315
315
330
341
365
370
365
341
310
297
303
314
327
316
309
318
320
310
348
438
334
314
320
326
343
361
373
376
365
331
310
306
314
326
323
316
316
321
322
268
533
440
323
324
332
336
354
374
378
384
362
321
324
317
316
337
323
325
320
326
328
240
541
384
311
325
319
332
352
365
376
371
336
310
299
302
315
321
309
312
313
314
256
543
425
311
316
313
332
348
367
376
374
357
319
313
316
322
338
327
325
327
333
333
283
497
370
327
332
339
352
369
385
385
373
345
313
308
313
324
325
318
319
325
325
267
540
435
318
316
325
332
350
369
372
373
357
312
308
307
310
326
320
323
324
328
325
282
480
364
320
325
335
346
362
378
384
373
339
314
312
306
331
323
315
317
323
317
252
558
420
308
313
315
321
339
360
364
362
343
308
298
299
305
318
307
303
307
305
308
283
449
337
303
306
316
329
345
360
363
347
317
294
297
297
312
311
305
303
309
310
257
532
428
311
318
322
328
347
372
375
378
355
319
310
311
314
338
330
329
326
329
330
254
519
381
319
323
327
343
357
374
383
371
339
311
307
309
324
327
321
315
317
322
271
528
431
325
324
328
338
356
375
384
386
359
332
319
328
316
341
332
327
333
334
343
265
542
398
329
334
343
359
368
388
390
380
343
319
307
319
321
332
322
317
325
324
288
464
448
322
317
320
330
342
367
375
381
363
326
302
308
308
325
316
313
309
321
317
224
548
398
311
319
322
330
353
372
377
370
341
311
307
304
316
326
317
318
312
319
284
472
427
316
315
316
324
338
364
366
367
354
316
303
303
307
326
320
315
313
322
320
235
562
394
319
317
323
340
352
374
379
371
346
311
307
310
319
335
317
324
325
331
310
392
452
339
325
332
334
357
368
383
395
372
333
313
317
312
329
327
322
323
330
334
247
573
426
314
323
324
333
347
366
370
372
345
308
304
302
306
322
307
310
306
311
288
420
416
319
305
316
326
340
356
364
375
353
318
305
308
309
326
326
314
322
323
321
251
549
396
326
330
338
343
369
382
387
380
347
318
306
315
323
329
315
323
326
323
294
451
450
322
321
324
331
346
364
378
373
365
326
316
316
313
332
324
318
321
326
327
244
540
391
316
317
325
338
356
375
375
368
344
311
305
311
327
330
320
320
320
321
256
566
436
317
320
327
336
349
372
381
376
352
321
310
313
320
328
321
319
319
320
312
364
466
334
313
324
327
342
364
377
379
367
326
307
308
309
331
318
312
316
318
316
234
545
389
311
317
320
334
355
373
374
371
338
320
310
309
320
321
309
309
312
319
248
546
432
308
313
312
330
338
362
368
365
343
308
299
303
311
318
312
307
313
319
295
404
447
320
324
313
324
338
357
370
372
357
321
295
302
300
317
312
303
309
313
310
306
433
344
307
321
322
341
365
372
373
361
329
304
306
311
329
317
313
315
318
319
252
517
373
315
313
323
335
353
369
375
364
338
307
299
305
316
315
308
308
315
320
233
574
421
312
315
322
335
349
369
376
377
348
317
303
306
318
330
319
319
327
328
265
550
440
320
324
327
336
353
372
376
377
354
314
301
300
311
319
310
316
317
318
257
532
425
312
306
317
329
338
358
371
367
351
309
302
303
317
320
311
315
314
319
254
541
428
307
312
326
336
352
372
378
381
348
319
310
311
327
333
323
330
329
334
271
567
441
327
334
339
353
366
389
398
391
362
329
321
322
328
339
330
323
332
330
276
510
442
323
326
329
339
352
372
380
385
360
323
316
318
310
330
327
322
325
333
325
374
476
340
334
324
333
337
362
378
378
366
328
301
306
304
322
312
309
315
320
314
268
464
354
310
307
315
328
347
360
361
350
311
290
290
291
305
305
293
297
303
306
223
553
392
296
310
314
330
347
367
373
367
344
315
304
312
311
331
321
317
326
329
306
455
459
332
329
330
344
360
377
389
387
379
335
321
318
321
332
339
329
333
339
340
254
559
399
332
335
349
353
370
381
377
380
345
316
310
305
309
323
316
310
317
316
272
490
424
313
311
320
321
344
362
368
370
350
316
296
306
301
325
316
309
307
319
319
248
501
380
317
322
329
339
363
377
380
372
344
315
312
318
319
335
325
316
320
325
297
411
440
318
316
317
327
339
361
371
374
356
318
302
298
302
311
321
307
313
314
319
252
531
427
309
316
323
338
354
368
376
380
355
320
309
313
313
331
329
321
322
327
324
243
555
399
321
324
328
338
363
379
384
378
346
311
306
310
309
328
317
310
316
317
304
346
444
335
313
318
327
339
359
377
379
366
332
308
308
313
317
331
321
319
323
323
289
480
447
319
322
325
338
346
369
380
379
358
322
304
304
308
315
323
313
312
318
319
252
535
434
307
321
322
324
341
355
364
358
342
303
291
290
284
304
304
297
297
294
302
215
501
369
292
307
303
317
337
352
356
350
322
288
285
286
294
311
306
298
305
309
298
379
436
325
314
322
328
345
365
380
380
368
335
317
312
316
331
334
321
324
327
330
261
572
439
313
320
325
337
349
368
378
376
354
317
305
316
307
329
328
319
321
327
328
272
491
364
323
331
338
341
368
375
385
380
344
316
317
321
341
342
329
328
337
336
282
529
449
333
327
331
348
354
378
381
382
359
329
310
314
320
331
320
313
320
322
315
285
453
353
315
314
328
332
351
369
377
359
323
307
307
310
329
331
322
329
324
328
264
578
437
320
341
336
344
369
384
391
393
368
329
321
319
324
342
333
327
329
330
331
288
487
370
329
332
336
350
367
381
384
385
350
317
310
314
319
324
318
311
314
315
263
515
428
304
312
311
320
329
351
370
366
343
305
297
293
303
315
299
298
299
301
297
314
442
336
309
314
320
332
361
372
375
363
331
305
302
311
324
322
316
318
319
324
254
563
427
313
314
324
329
347
370
383
373
352
316
305
307
304
328
325
321
321
320
320
270
482
354
317
317
323
336
350
370
377
362
337
303
305
306
322
324
312
312
313
321
246
569
422
312
315
323
331
353
373
377
374
347
314
307
306
314
327
321
313
323
320
319
314
466
348
318
319
329
343
361
376
380
369
331
309
310
308
319
329
323
317
326
325
288
484
446
321
323
330
335
353
372
383
386
369
337
313
313
314
328
331
324
326
330
327
258
561
433
318
321
327
334
353
372
379
378
349
316
309
310
304
322
310
308
309
316
319
236
534
392
312
316
326
335
354
375
377
365
335
311
305
303
306
333
321
314
318
322
320
249
534
384
317
323
326
337
361
375
378
374
340
315
309
308
308
328
322
321
318
323
320
248
495
367
316
318
319
337
351
377
374
363
333
304
301
311
306
328
321
316
320
320
317
323
447
343
319
328
332
341
362
375
386
375
342
317
313
312
320
330
321
324
325
332
298
473
443
331
329
336
340
357
373
384
386
368
328
315
316
318
329
333
321
323
326
322
256
549
436
311
319
324
329
349
367
374
374
354
315
306
307
310
328
322
327
332
324
327
280
484
360
319
322
328
343
365
375
376
366
337
307
303
307
318
312
307
312
316
315
238
528
398
314
312
323
326
350
370
372
362
337
306
301
301
319
322
306
310
314
314
244
563
425
306
315
313
326
343
364
366
369
345
312
304
308
313
321
316
314
318
314
271
520
435
313
320
324
334
352
371
384
382
359
327
313
311
324
327
321
319
325
322
279
504
444
320
319
326
331
350
369
378
377
355
316
306
304
318
323
316
319
319
323
286
486
452
321
330
330
334
350
372
380
381
370
332
316
315
323
329
320
319
329
330
279
496
442
316
322
327
335
350
369
377
380
360
323
309
299
317
323
307
310
310
313
251
530
423
300
306
311
317
337
354
364
360
341
307
293
300
309
321
311
315
316
319
281
482
440
320
317
328
334
350
370
381
382
362
330
310
320
317
336
331
325
324
327
322
315
462
353
319
328
336
343
369
384
386
376
337
315
312
314
328
328
322
323
327
328
253
567
430
316
318
326
338
356
371
381
377
349
319
304
305
310
322
312
313
315
319
302
408
426
321
313
317
329
342
361
369
382
359
323
303
301
306
320
317
313
316
320
324
240
573
415
315
319
336
340
362
376
380
379
343
318
307
309
310
331
322
314
319
319
322
273
485
362
320
319
324
342
362
375
375
365
334
306
300
307
309
325
320
313
318
322
304
384
442
336
325
335
343
353
373
385
388
374
335
314
311
310
318
330
325
321
321
329
297
439
421
321
314
319
325
335
358
366
372
353
323
296
291
298
310
314
307
307
317
321
271
485
431
325
320
326
337
350
377
391
386
364
325
303
310
317
330
330
332
326
332
339
305
445
461
340
337
338
347
361
384
394
402
374
355
332
332
327
329
334
329
327
323
329
323
291
464
355
310
314
327
335
351
368
372
363
327
302
291
298
300
316
305
301
305
306
313
270
456
354
310
320
325
342
361
374
382
373
340
311
314
315
319
331
335
326
330
330
340
252
558
404
322
326
333
342
359
377
379
375
345
319
306
308
302
305
314
302
310
303
309
231
539
410
293
299
306
318
334
353
360
358
338
298
288
288
294
304
309
298
302
303
305
250
534
428
312
313
323
334
350
375
386
372
364
316
313
313
314
327
333
329
331
329
335
297
477
461
330
328
334
341
355
374
379
382
362
324
309
308
314
323
337
326
325
328
328
308
404
459
326
323
326
328
344
366
380
374
362
324
310
311
307
318
328
317
316
324
327
296
456
440
322
317
322
335
354
374
382
386
363
330
314
308
315
323
330
322
323
326
330
288
485
448
321
323
326
334
347
369
382
383
368
331
310
312
311
323
329
324
325
317
322
299
481
450
326
325
333
341
356
376
388
399
375
335
313
330
320
335
313
317
319
324
332
263
539
449
309
324
319
328
344
366
374
369
352
316
300
307
305
314
306
304
305
304
312
227
538
389
298
307
309
324
348
364
373
365
340
309
306
301
299
334
327
310
315
327
325
243
527
384
322
334
339
347
367
383
394
381
355
325
317
329
323
340
334
317
323
332
324
332
487
351
317
323
334
340
364
374
380
367
328
303
303
298
316
314
304
302
308
307
252
517
417
296
301
307
318
330
355
363
359
345
305
293
299
299
322
313
311
315
319
326
236
555
398
324
333
331
346
367
378
390
382
353
316
312
310
322
336
324
321
328
327
318
350
459
341
323
324
333
348
375
376
379
374
327
307
304
309
312
317
305
303
319
314
261
516
431
306
311
312
324
335
361
366
366
347
312
299
293
292
316
306
306
307
311
322
235
549
406
313
316
330
338
359
378
383
376
350
319
315
308
315
335
332
322
328
327
331
274
492
366
318
323
327
342
362
380
384
379
346
313
306
320
314
336
310
313
318
323
303
407
445
318
317
320
321
336
366
369
375
360
331
309
302
304
317
319
311
316
320
321
250
560
436
311
317
322
337
349
373
370
367
353
314
301
306
308
316
321
312
316
319
321
239
537
384
319
326
328
342
366
380
390
365
336
308
315
306
318
324
320
322
328
334
318
367
454
343
323
336
330
343
374
376
383
362
330
299
303
297
312
315
305
303
308
312
244
535
420
294
298
302
323
340
345
369
336
329
298
283
291
289
317
308
302
306
312
321
243
552
407
320
315
329
334
360
382
380
380
353
311
318
315
328
341
329
327
331
333
339
253
553
403
325
338
337
348
369
381
383
380
344
315
313
303
310
327
321
298
306
310
315
231
502
371
303
307
319
322
346
373
358
361
331
284
285
289
305
316
302
314
309
318
318
274
479
357
318
316
312
336
363
378
383
377
342
322
318
324
325
345
341
333
344
343
340
268
542
396
340
344
346
357
375
390
396
385
357
332
315
321
324
337
331
327
327
329
328
249
543
400
317
325
334
336
353
374
378
367
340
309
296
296
301
318
307
300
303
314
311
241
496
372
311
317
334
337
353
370
374
376
335
311
315
307
312
321
320
311
313
318
313
227
525
372
300
307
308
322
340
362
355
355
327
299
301
303
306
331
310
311
315
320
322
238
523
379
317
320
326
333
364
373
375
375
339
313
304
304
310
327
319
320
321
326
317
313
469
350
314
326
337
341
364
385
384
373
344
314
314
314
332
337
322
329
329
328
303
435
454
329
320
330
336
351
374
386
386
370
329
311
307
311
324
326
320
319
320
329
263
557
455
327
333
336
347
356
382
391
386
368
328
319
316
318
332
324
326
320
333
330
253
521
392
329
322
334
342
366
375
380
374
344
314
308
305
316
326
321
320
317
319
306
384
445
334
321
324
336
349
364
378
381
363
328
311
308
307
322
335
320
325
329
332
283
524
449
323
327
330
342
362
375
389
381
360
326
309
309
305
321
321
308
309
310
317
231
516
371
304
304
316
320
345
360
361
357
325
299
291
293
305
314
304
307
303
309
283
445
430
312
310
317
329
349
372
382
386
368
334
317
325
321
339
336
330
336
339
344
256
602
432
333
337
336
355
373
391
398
390
359
326
319
319
316
333
329
322
325
331
329
295
481
358
322
323
325
341
360
371
374
368
332
304
300
300
311
317
307
312
312
314
271
494
426
306
311
315
324
342
363
368
379
353
316
308
311
314
337
331
315
322
326
324
246
541
396
324
321
335
346
363
381
382
373
344
309
303
304
312
332
316
315
320
317
320
295
456
347
322
324
327
340
355
369
373
359
326
299
293
292
309
309
299
303
307
309
256
504
406
300
306
305
315
336
355
374
361
352
312
290
293
299
313
305
299
312
309
314
228
587
399
307
306
315
332
348
360
377
366
344
311
299
302
306
322
323
311
320
325
320
234
583
407
318
321
332
344
358
375
390
383
363
329
332
325
325
340
339
329
334
341
331
248
575
411
326
331
329
352
358
376
384
383
350
320
308
311
315
325
314
309
317
313
306
312
451
334
308
305
312
334
348
371
364
362
322
303
299
305
321
325
316
318
325
320
282
520
452
329
321
330
339
355
373
386
386
368
333
316
318
318
333
330
324
322
330
335
273
572
448
322
329
332
333
350
367
376
375
351
314
298
297
304
320
299
306
305
304
301
292
434
326
299
303
308
327
345
359
366
350
322
294
292
297
315
313
307
309
317
322
246
558
428
310
316
326
334
353
375
380
380
358
321
308
315
317
340
324
321
327
329
325
254
501
378
322
325
333
343
371
387
389
382
348
311
314
313
322
326
320
322
319
327
305
396
438
325
319
321
329
345
362
376
379
363
329
311
306
306
327
319
312
319
326
325
245
587
426
323
334
336
346
365
383
393
386
359
325
316
319
314
340
324
319
325
322
320
234
567
403
307
307
315
321
338
356
358
355
325
292
285
283
281
296
298
293
286
295
292
291
381
422
307
301
295
308
324
343
353
358
344
313
291
283
290
296
310
303
300
303
306
306
282
442
336
304
303
315
329
344
358
361
348
321
296
289
298
303
327
312
309
314
323
319
264
498
364
323
325
335
350
372
388
394
384
352
321
319
324
322
342
340
335
339
342
339
260
603
429
334
339
339
349
364
382
381
389
355
316
306
306
305
314
319
311
313
311
310
259
487
414
301
298
302
311
328
342
349
353
332
296
278
277
279
298
309
291
297
303
308
293
369
436
333
312
315
319
342
360
373
378
367
331
310
304
315
317
340
320
328
324
332
333
272
498
383
331
330
337
348
359
376
381
370
345
303
301
304
302
319
316
311
303
310
317
245
503
367
305
312
321
332
357
371
372
363
334
307
302
314
313
333
326
321
323
332
332
260
527
388
327
340
348
362
382
396
403
391
367
334
326
331
336
343
332
328
332
336
328
259
522
377
327
319
332
338
357
367
367
367
335
302
301
301
313
321
314
311
310
313
302
312
439
324
301
309
313
324
339
358
363
354
321
298
295
291
315
313
306
308
314
317
254
542
427
310
314
331
336
356
374
384
388
364
326
319
323
322
343
331
331
327
337
336
247
545
392
322
328
337
341
363
382
380
379
346
320
312
313
324
333
328
327
324
331
310
403
461
338
331
332
346
354
379
385
390
375
343
315
314
317
335
324
322
325
328
332
248
566
413
321
326
334
348
361
384
389
380
353
321
307
310
326
329
318
318
326
324
300
442
440
327
319
321
332
343
365
371
373
359
325
305
309
310
331
325
319
321
325
325
244
574
414
318
322
329
339
360
379
384
384
368
323
319
316
328
335
327
324
326
331
315
375
445
334
315
319
330
339
359
368
366
356
320
293
289
288
301
295
283
282
283
289
206
535
374
276
280
284
296
315
330
338
331
309
271
265
272
281
298
287
282
284
288
289
241
452
326
288
291
299
313
333
352
358
347
316
296
297
298
304
313
305
309
308
313
288
419
427
315
305
308
317
333
352
368
370
353
317
296
303
296
320
314
308
311
316
316
237
558
422
318
324
332
348
366
387
396
397
375
344
334
343
344
368
359
354
358
361
357
277
582
429
351
359
365
369
388
409
422
395
373
335
327
329
327
345
334
323
320
320
323
249
482
363
298
301
303
316
327
351
351
336
310
277
274
271
274
289
272
278
278
281
276
282
410
313
290
292
302
313
334
347
352
344
308
294
286
295
302
318
309
310
309
317
310
279
458
345
310
313
321
339
350
370
368
362
327
303
302
304
310
330
324
315
317
323
319
273
481
356
318
321
331
338
366
380
384
376
347
315
317
316
325
336
324
328
328
338
327
328
456
359
327
333
347
359
377
400
395
388
354
331
328
336
340
352
350
346
351
349
353
304
507
385
343
351
350
365
383
396
401
389
355
329
321
325
320
337
333
327
325
331
333
246
564
412
322
326
333
348
361
373
383
376
351
312
310
310
315
330
328
319
325
324
329
270
548
432
323
320
326
338
355
370
385
381
359
324
313
317
315
331
335
325
327
330
336
293
497
446
336
329
328
340
348
372
382
379
359
328
304
305
308
307
327
315
310
318
316
316
248
481
364
310
309
319
323
340
360
361
350
329
298
297
295
299
308
306
300
302
308
312
244
543
423
306
308
316
328
343
362
371
367
346
301
303
295
302
310
318
312
308
311
319
288
407
450
320
310
321
324
338
363
376
374
368
334
318
319
317
321
336
331
329
332
332
329
276
485
378
323
328
334
350
361
377
381
369
344
307
301
301
304
320
306
298
299
303
303
223
477
363
290
295
295
306
329
338
348
335
306
272
275
269
270
294
289
282
287
293
290
221
531
403
289
299
303
314
326
353
364
364
349
308
295
291
301
308
318
306
305
309
317
305
336
433
324
308
314
319
334
355
367
369
365
326
300
296
301
304
319
317
308
308
321
320
254
501
377
311
313
324
333
359
372
376
370
337
312
305
311
312
334
333
325
334
333
339
267
578
444
330
336
342
351
369
386
396
398
381
340
330
327
334
343
353
342
347
347
350
338
377
474
357
346
340
360
361
386
398
405
387
355
320
321
320
320
340
329
324
327
331
332
247
538
395
321
322
331
341
362
379
383
381
350
319
308
308
311
328
332
324
323
339
330
295
486
449
332
332
335
346
361
379
396
393
383
339
321
321
321
320
339
332
330
338
340
331
252
575
417
314
319
325
329
343
368
372
365
342
303
288
290
290
305
306
298
300
299
308
280
411
409
311
299
309
314
327
357
368
368
354
323
303
297
307
309
332
319
316
325
327
333
246
576
418
329
334
338
351
373
389
393
393
370
334
323
325
325
335
344
335
338
335
340
329
336
471
352
332
335
336
353
372
393
391
378
344
317
318
319
307
333
327
322
328
329
325
252
576
427
319
327
323
341
356
374
383
385
360
324
306
308
310
323
326
320
323
327
329
316
397
442
342
328
334
346
360
376
392
397
386
341
319
323
316
317
338
334
327
328
327
335
263
570
446
321
324
331
339
358
377
392
395
374
332
310
313
311
317
334
325
320
328
329
321
255
499
371
316
317
330
338
361
382
377
380
345
317
304
309
307
328
321
317
314
310
318
249
566
422
304
315
320
326
347
368
372
367
348
309
291
295
302
313
320
309
312
314
319
299
400
430
320
313
314
327
343
368
372
380
367
327
313
310
313
317
332
320
323
322
329
327
265
505
377
333
330
337
356
371
387
391
385
353
322
315
312
318
336
327
319
321
322
324
245
575
406
322
326
332
338
359
369
385
377
349
318
307
308
313
329
328
315
317
327
329
253
571
430
318
328
333
342
355
385
387
388
366
329
318
320
323
326
338
331
327
337
339
321
417
442
342
334
336
341
351
375
386
390
375
339
313
313
306
316
332
311
314
324
316
311
342
429
334
312
321
328
341
357
376
376
350
329
302
304
299
314
319
314
313
317
322
316
347
446
344
318
328
333
350
376
387
395
381
339
316
311
321
326
340
327
331
338
338
332
342
467
351
329
335
336
354
371
389
388
380
338
315
314
310
323
336
321
320
328
328
315
349
457
336
321
324
334
338
369
377
378
369
334
307
304
306
318
323
318
316
327
322
286
478
427
319
312
333
340
349
371
383
388
367
337
314
313
319
340
329
322
324
330
332
254
575
428
318
324
326
339
352
376
376
377
350
310
297
301
306
327
315
310
319
317
314
228
565
402
303
307
321
324
345
363
372
367
337
299
291
290
295
316
311
303
314
311
319
233
523
381
310
310
324
336
352
369
375
372
336
302
297
301
305
322
312
310
313
314
305
345
442
328
312
319
324
344
366
369
380
365
328
307
308
307
316
328
309
318
327
326
307
402
445
333
321
328
335
351
371
392
385
377
335
321
316
318
334
341
329
335
343
340
312
456
466
334
330
329
341
356
376
387
392
370
336
308
305
305
328
321
314
317
322
316
236
563
398
309
315
321
335
348
375
379
371
346
306
305
305
324
333
315
316
325
332
310
434
452
337
331
339
345
364
378
391
390
381
341
321
320
319
340
338
325
333
335
336
254
587
422
328
333
340
345
366
383
395
386
352
315
305
301
315
326
316
319
321
319
315
326
433
337
316
318
326
339
359
376
376
363
323
293
299
297
321
314
305
308
314
320
239
578
414
317
325
333
341
363
380
391
383
361
326
319
320
331
341
329
329
335
345
323
340
470
361
327
336
349
351
374
389
385
378
344
317
313
317
337
343
326
336
334
333
281
538
445
322
340
336
346
358
380
389
390
373
328
314
313
318
330
321
321
325
324
327
260
505
386
321
333
335
347
365
385
390
372
340
315
302
304
313
328
313
316
320
320
297
378
429
322
309
314
321
333
357
367
365
353
309
289
292
289
303
316
307
309
314
313
291
421
437
324
314
318
332
347
369
385
381
364
320
309
304
306
320
326
322
318
326
329
314
377
433
336
320
323
328
344
365
380
373
360
325
304
297
300
307
319
307
304
311
313
296
374
432
330
311
323
331
341
367
380
378
364
326
306
305
307
313
329
325
322
326
327
333
275
497
372
327
332
343
352
376
386
395
384
353
321
320
319
324
338
337
335
338
339
337
284
545
454
328
336
337
351
368
381
392
394
369
326
311
305
308
315
333
324
317
323
324
321
298
453
340
325
323
335
336
364
376
380
368
337
308
303
310
311
332
327
320
321
328
328
247
580
413
326
329
339
347
368
384
390
386
358
319
313
315
319
330
330
324
330
326
326
293
448
445
325
319
319
327
343
370
378
376
357
323
294
303
300
306
308
314
321
318
315
319
245
496
372
314
316
319
331
350
368
375
369
335
307
309
304
319
329
328
322
320
326
333
267
563
446
326
334
333
341
351
375
384
385
363
331
301
308
307
317
328
317
321
324
320
307
379
453
330
321
318
333
336
353
373
370
362
322
295
291
297
294
320
313
307
310
308
311
249
519
420
301
300
304
310
328
342
357
355
331
296
283
276
279
283
296
281
281
284
287
282
238
432
325
274
287
291
302
322
342
344
332
299
278
268
275
273
292
292
286
291
291
291
230
524
415
289
298
304
312
328
350
364
361
347
315
300
300
300
316
330
321
330
336
335
340
279
515
380
330
337
346
346
370
385
392
383
353
320
316
312
309
332
321
315
313
319
322
245
552
422
301
315
316
330
345
364
374
372
345
314
298
299
300
314
319
318
310
317
316
312
324
455
341
319
322
329
345
366
375
382
374
338
316
314
313
315
337
341
331
336
336
334
255
574
427
324
330
334
345
354
374
385
379
355
320
307
306
309
318
327
321
316
329
325
305
398
454
331
328
324
328
343
366
378
378
369
337
308
312
317
316
339
329
328
332
343
349
265
570
410
337
340
348
350
378
388
402
390
370
330
328
330
331
351
338
340
338
340
336
259
557
419
332
337
335
347
363
373
380
373
350
312
302
299
304
315
318
303
307
310
309
231
558
396
296
303
311
314
328
352
355
358
328
298
286
288
292
306
307
299
301
313
315
254
534
422
309
312
321
328
341
358
372
363
347
311
295
297
296
313
316
308
311
317
317
271
494
429
311
310
317
325
340
357
371
364
351
319
305
303
305
322
319
310
327
328
335
273
548
446
331
336
338
349
365
381
396
392
376
345
334
340
343
353
343
336
346
342
346
276
510
409
338
348
346
357
371
384
383
380
349
317
315
315
325
329
313
315
308
313
305
345
417
327
308
311
316
331
349
357
352
345
313
293
289
297
309
310
299
301
312
310
272
478
423
311
309
321
323
335
352
366
365
348
311
298
303
302
327
313
311
313
323
330
246
557
415
323
317
324
331
348
361
366
359
344
306
301
297
304
312
304
306
306
310
302
322
420
339
308
313
320
335
358
362
375
356
328
306
307
311
332
324
318
319
328
333
274
553
435
331
340
341
353
368
388
398
398
375
337
330
333
328
357
343
338
345
345
343
263
600
425
332
336
346
351
367
382
386
383
360
318
311
312
314
331
322
319
323
329
324
248
514
377
315
325
328
334
355
372
374
366
344
312
306
311
313
328
324
331
333
331
333
290
488
370
334
334
347
351
376
391
399
386
359
335
332
331
341
349
336
335
337
330
321
382
432
342
318
314
327
339
355
359
362
348
310
288
286
286
289
306
290
287
287
292
281
323
400
301
281
284
291
300
318
335
331
327
289
268
266
270
273
292
281
286
281
285
290
245
440
331
285
295
306
317
337
347
349
343
311
281
281
283
289
309
303
301
302
307
309
231
508
377
303
305
320
322
340
362
366
366
341
311
305
308
302
327
318
307
317
320
328
254
578
406
323
336
338
354
371
392
388
396
372
342
340
332
336
356
361
347
348
352
356
291
577
462
344
351
360
365
380
396
402
405
388
346
330
333
332
345
351
337
336
341
342
310
473
462
329
333
328
342
356
368
381
386
366
327
308
305
309
314
330
316
328
322
328
303
438
453
324
326
322
337
349
369
383
386
372
341
320
318
323
343
344
338
339
341
340
281
552
444
335
335
337
350
359
381
382
376
357
324
318
313
313
333
322
319
315
324
317
246
559
412
308
312
314
331
343
364
367
363
337
305
289
292
290
305
305
292
300
296
301
227
535
396
287
288
291
303
315
335
346
343
317
277
270
269
272
289
280
278
283
288
286
201
526
379
277
286
290
303
317
337
346
343
321
286
284
289
289
308
307
293
302
311
309
232
505
377
307
317
320
336
359
376
384
377
350
325
319
318
337
339
332
334
336
338
314
433
443
348
341
345
359
367
396
407
404
389
359
332
335
335
345
345
330
343
339
340
289
518
446
327
331
335
345
363
375
391
389
370
332
318
319
327
332
336
331
327
332
342
289
539
443
336
335
347
355
364
387
396
393
372
340
324
335
331
348
337
337
339
336
338
292
523
441
333
331
334
344
355
370
391
384
366
330
316
308
309
327
321
314
312
318
315
259
526
420
311
311
319
325
341
359
368
368
350
317
298
301
307
313
320
308
311
320
313
280
467
430
313
313
318
325
342
362
377
384
359
323
308
306
313
313
326
320
321
326
323
318
350
462
342
323
326
331
342
364
379
379
369
334
314
307
311
314
327
315
314
320
324
318
279
457
364
320
323
334
344
362
380
386
376
347
321
314
324
321
346
332
326
333
333
332
262
561
413
328
343
344
357
373
400
396
393
376
337
334
329
331
344
348
336
339
341
334
276
542
443
329
341
337
343
354
376
384
384
360
323
302
300
298
315
317
307
307
310
313
283
435
413
308
308
314
320
332
349
371
370
355
321
297
293
300
324
319
320
316
319
326
308
386
440
340
329
331
343
355
373
391
393
379
338
318
314
316
318
338
326
328
324
329
327
253
515
384
318
325
328
338
358
376
383
385
359
322
311
308
311
331
334
322
329
331
336
273
552
439
324
327
331
350
358
383
393
392
372
338
320
318
325
335
331
329
333
335
337
310
448
444
332
331
334
342
353
375
386
386
370
329
308
303
304
303
324
318
309
313
317
313
249
495
364
301
307
314
327
349
368
363
364
332
299
292
302
301
317
316
314
315
315
321
257
542
426
318
317
322
333
354
371
381
383
366
331
309
307
317
327
336
322
331
331
340
305
407
434
338
331
332
335
354
364
381
381
371
333
316
309
316
311
338
328
322
327
331
329
244
575
417
319
325
331
336
360
375
381
382
360
324
310
316
312
328
335
324
328
334
331
311
431
452
337
333
340
349
359
380
394
398
386
348
324
323
322
331
342
330
331
334
334
333
309
469
368
333
334
345
354
371
391
396
384
352
321
315
322
317
342
334
329
328
334
332
257
579
421
325
330
337
345
359
380
386
383
359
322
317
300
314
323
337
315
335
323
326
316
348
449
332
315
312
319
338
353
367
366
357
321
296
292
293
291
311
301
296
291
297
301
228
471
354
293
287
296
312
329
348
351
341
314
283
272
275
276
296
291
281
285
288
291
223
528
395
287
295
304
315
336
348
360
366
340
309
300
302
305
314
326
329
325
322
330
316
367
457
337
323
331
332
345
371
383
383
374
341
316
312
320
321
338
328
325
329
332
332
250
559
411
326
326
332
342
359
376
391
381
355
321
308
305
310
335
327
323
319
325
327
278
508
434
320
325
331
341
356
376
390
392
373
342
323
325
330
336
350
342
344
345
348
347
282
547
396
335
333
340
349
363
378
386
375
345
311
300
303
294
308
300
298
295
296
296
226
521
387
278
283
286
293
307
326
337
330
307
267
255
253
251
266
270
256
265
264
270
245
372
381
276
274
278
289
306
322
340
337
331
296
272
271
275
276
302
288
286
292
294
299
222
546
390
296
299
308
314
335
361
371
375
354
315
302
305
306
322
325
325
325
332
341
328
350
461
362
341
345
354
371
392
406
411
406
376
347
339
343
348
370
364
359
365
363
370
294
611
456
360
370
374
386
400
414
419
415
384
345
334
332
326
333
336
320
317
310
310
282
383
410
291
280
276
284
297
313
321
319
307
265
237
239
239
235
261
247
243
254
255
260
193
493
365
257
266
276
285
311
325
343
346
328
298
284
288
291
304
314
304
307
315
318
312
311
446
350
321
320
327
337
361
378
380
370
338
314
303
315
310
333
330
323
329
329
334
277
541
437
321
327
337
338
353
375
388
387
372
337
324
321
336
335
352
350
341
348
348
353
272
595
438
348
350
354
367
387
404
411
415
387
351
339
331
340
351
355
346
342
344
341
332
390
446
350
336
335
345
358
379
397
397
385
351
328
321
320
324
343
335
330
331
334
337
262
586
422
320
324
334
338
355
379
384
384
359
319
316
314
316
323
333
324
318
329
336
330
260
526
382
322
325
337
347
371
382
391
388
363
325
318
314
316
325
325
318
316
318
324
289
452
447
325
319
330
335
346
368
382
385
373
334
318
321
315
327
337
329
327
333
335
335
281
474
381
331
333
341
355
374
391
395
387
358
333
326
328
330
350
333
333
333
343
342
267
575
425
335
335
341
348
364
388
381
382
352
322
308
306
299
314
315
305
307
302
302
263
455
404
290
284
288
295
307
327
339
343
325
281
265
263
261
272
280
265
268
273
269
259
319
391
287
272
279
287
301
322
338
343
334
302
282
280
279
292
302
293
304
306
307
285
421
418
320
316
315
323
337
357
380
377
372
332
317
316
320
341
335
330
335
338
341
273
552
433
335
338
345
353
372
390
399
399
378
344
334
331
334
353
343
340
343
348
348
277
535
408
346
352
359
368
390
415
417
408
376
344
334
338
351
356
345
347
350
352
315
493
440
344
335
342
345
354
372
380
377
363
327
300
299
303
314
297
292
292
292
291
232
435
328
272
278
281
291
307
321
321
315
285
256
248
247
268
261
257
258
265
266
212
472
374
264
268
276
289
305
326
337
340
327
291
278
286
290
306
299
302
306
310
313
274
459
354
314
317
327
339
360
379
391
381
349
318
321
314
336
336
322
331
337
342
278
553
436
333
344
346
358
375
392
401
401
383
350
338
337
356
358
350
349
344
356
344
422
451
368
354
361
371
384
404
414
417
401
369
346
343
345
363
356
346
347
350
350
268
594
422
338
338
346
354
371
391
393
395
364
331
322
319
327
338
329
324
329
331
319
363
440
338
320
321
330
343
364
376
380
373
335
314
311
311
330
329
322
321
326
331
259
555
431
328
333
338
345
360
381
385
387
360
329
316
316
325
337
323
321
320
326
316
335
429
344
321
328
333
346
366
380
384
369
341
317
309
311
331
331
319
327
328
333
266
559
431
326
333
335
343
361
377
384
387
360
331
311
308
312
330
328
323
319
326
330
249
570
411
321
324
331
339
355
372
381
378
351
315
304
305
307
322
316
307
310
315
312
235
548
402
302
308
308
319
332
350
356
355
331
292
283
278
284
304
294
284
289
290
290
218
489
360
288
292
301
314
337
350
361
353
327
293
290
289
291
318
309
303
305
308
315
248
512
376
312
316
322
340
356
375
378
372
347
313
308
307
310
324
330
324
321
319
323
253
564
420
310
319
322
331
351
375
387
391
370
337
327
329
339
341
356
348
344
353
359
352
380
470
379
371
367
373
388
407
420
431
417
380
353
347
348
346
356
348
336
338
335
331
278
461
371
313
308
307
321
327
339
339
325
288
258
247
244
239
251
245
228
229
231
221
148
452
309
208
216
225
232
257
270
285
279
253
222
208
210
219
225
242
233
232
242
249
249
270
383
282
259
265
284
295
317
335
343
340
308
282
277
283
289
304
308
306
312
323
326
269
510
436
320
326
332
344
364
387
403
407
398
367
347
354
363
370
385
385
382
387
390
388
363
525
422
380
385
398
408
425
436
439
426
394
365
354
352
353
363
363
348
347
347
346
284
543
442
320
324
319
336
344
372
372
374
358
314
292
288
289
286
306
295
284
289
298
294
220
490
363
297
301
310
330
336
355
365
365
336
302
291
297
303
307
319
313
316
317
320
294
458
433
326
328
333
343
350
373
387
391
370
338
315
315
317
324
341
333
329
330
331
329
263
509
386
324
333
335
360
376
376
388
385
351
328
316
317
321
324
342
328
327
334
337
307
448
445
340
334
344
353
365
389
400
403
391
358
332
337
342
338
356
352
342
347
349
353
284
569
445
342
346
349
359
369
393
398
397
376
336
324
325
325
332
334
320
319
319
314
296
399
408
318
299
309
313
330
345
358
359
344
312
288
286
290
293
310
299
296
299
299
303
238
469
353
295
301
305
317
338
354
360
357
336
296
299
296
297
321
313
310
318
316
322
247
559
419
318
321
330
346
361
382
394
385
366
326
317
315
318
331
334
319
320
338
343
277
555
448
334
341
349
353
372
393
405
399
388
353
330
331
337
348
345
343
338
341
340
306
495
444
331
339
339
346
358
373
395
400
383
350
330
328
330
336
341
329
329
338
328
311
446
439
333
329
333
335
354
370
378
383
368
331
306
304
301
316
314
302
301
301
304
270
463
407
298
297
301
307
325
344
351
351
335
298
278
276
277
299
289
279
282
290
292
233
492
395
287
287
293
303
323
343
360
362
338
304
293
295
296
312
313
306
305
313
315
271
507
423
319
322
326
334
357
374
388
385
364
330
317
314
319
336
333
327
328
330
331
269
559
429
326
329
333
345
359
384
390
394
370
333
320
322
322
342
336
327
333
332
343
288
536
448
334
334
342
349
367
389
401
403
388
348
324
323
325
341
342
332
334
337
344
326
434
453
340
334
338
348
358
380
394
398
381
345
317
309
309
325
324
313
312
309
314
294
355
402
316
292
301
305
317
328
343
342
335
295
270
266
271
275
279
268
268
267
277
269
272
393
302
271
280
289
295
320
341
342
333
303
272
274
274
281
298
290
290
297
302
301
229
505
369
301
312
315
329
346
365
377
370
345
313
307
310
313
332
330
323
333
333
338
273
565
436
334
339
349
353
374
395
406
409
394
354
332
340
347
362
366
356
356
360
361
335
471
464
362
354
360
366
376
398
409
407
394
356
329
327
330
332
347
342
332
337
341
342
262
561
410
327
334
337
346
363
382
389
388
360
332
326
318
319
329
337
326
324
334
341
304
454
439
337
334
338
348
364
384
395
398
381
354
324
328
325
337
345
330
333
329
336
330
288
473
371
329
336
338
353
373
383
389
379
352
319
309
312
312
334
322
317
317
324
322
248
547
403
312
321
329
338
351
371
380
376
354
317
311
312
313
332
321
319
325
326
330
280
523
432
327
334
339
351
366
384
399
395
382
342
323
324
328
341
335
328
332
329
328
271
549
430
319
328
328
344
354
377
378
378
358
322
312
307
310
329
323
318
316
320
324
251
561
414
320
325
331
337
356
374
381
382
356
317
304
309
310
327
327
321
321
327
322
257
555
414
312
321
327
340
346
376
374
378
354
318
303
304
309
322
311
307
311
307
312
234
513
380
297
300
306
312
333
348
355
350
320
285
271
274
279
295
281
277
281
281
280
205
478
343
269
277
282
292
308
326
