316
325
334
354
371
376
368
343
318
316
313
332
326
321
323
323
321
269
498
368
316
320
327
338
356
370
372
362
327
305
306
305
319
311
304
307
311
289
406
445
314
306
314
322
336
355
366
368
355
317
304
304
314
319
313
316
320
323
237
635
420
325
327
334
344
360
378
381
380
350
322
320
322
335
327
324
328
331
301
451
449
332
325
327
337
349
362
370
372
353
321
308
303
318
316
310
309
312
316
237
537
378
311
320
329
341
357
370
372
370
339
316
315
320
336
330
332
335
337
283
537
449
330
330
336
344
360
371
380
378
357
323
312
319
327
320
317
317
324
292
464
411
324
313
320
330
341
356
361
357
343
309
299
300
319
308
302
307
312
305
337
423
341
316
321
330
343
359
369
366
355
325
310
311
325
328
323
320
323
330
243
596
406
325
331
337
350
368
383
388
380
351
327
328
331
343
333
332
335
338
269
622
446
333
339
342
348
363
376
380
375
348
315
307
308
322
311
309
315
313
262
539
438
307
310
316
323
338
353
358
356
334
301
296
297
314
308
304
309
313
283
458
460
315
313
320
330
343
362
372
372
354
320
312
312
331
327
322
325
328
322
323
507
348
326
331
338
348
363
371
369
358
322
305
305
315
320
309
313
316
318
237
536
388
312
318
324
337
350
361
364
359
332
304
304
308
323
317
307
313
316
257
510
417
313
315
322
336
347
363
366
364
340
315
305
308
323
320
315
318
322
308
408
409
341
324
337
344
360
378
387
382
370
337
322
324
327
338
327
326
329
333
255
602
423
321
323
330
340
354
367
369
366
338
307
303
305
320
316
316
313
317
306
354
449
332
316
319
327
341
362
373
375
358
325
310
314
320
330
322
323
326
332
242
606
402
329
337
346
357
371
387
388
379
344
319
321
319
334
326
323
322
325
261
593
438
315
320
325
334
348
364
373
364
337
308
306
301
319
314
309
309
313
300
361
413
323
308
311
322
331
350
356
351
338
302
290
292
311
312
303
306
308
312
272
460
372
318
326
336
351
370
382
386
377
345
327
327
330
350
337
330
337
338
288
543
441
332
331
338
344
358
376
382
379
355
324
314
317
323
330
323
322
323
326
241
585
381
317
322
329
338
354
372
372
364
330
309
312
311
328
320
317
320
325
302
452
473
331
328
333
341
355
372
382
383
365
330
319
323
324
340
330
330
332
333
255
643
440
321
326
330
340
354
369
372
368
342
308
303
305
307
319
311
310
311
315
220
641
397
307
311
319
328
344
359
361
360
330
302
302
306
310
322
313
316
319
322
226
639
405
316
322
331
342
359
373
377
373
344
319
317
320
323
335
328
330
332
333
249
650
432
321
322
329
335
353
365
371
369
345
313
309
311
310
328
319
316
320
321
261
545
446
320
326
330
342
350
363
365
365
342
315
307
310
309
322
312
309
314
316
269
513
419
320
322
328
342
355
373
372
375
354
325
319
320
323
339
323
320
318
322
273
524
415
322
322
329
340
357
374
378
374
350
320
309
312
314
332
323
321
325
326
303
437
443
334
328
330
338
351
368
377
377
359
324
313
315
316
333
327
323
326
330
322
367
493
342
327
334
342
355
373
385
388
371
334
323
325
328
344
338
333
333
335
323
374
508
341
327
328
336
348
364
376
376
357
316
302
305
305
322
317
313
313
312
294
410
473
316
310
314
322
337
356
365
365
345
306
294
298
299
317
312
311
319
322
287
499
460
327
328
333
342
355
372
380
380
360
329
319
320
318
335
331
323
327
326
298
454
428
323
317
318
325
336
354
352
350
329
297
283
287
292
304
292
289
293
293
256
477
389
298
298
303
310
333
349
358
355
336
306
296
302
307
328
319
318
319
324
304
444
441
338
329
336
344
360
380
392
391
372
338
330
331
335
353
345
338
344
346
343
312
526
374
339
339
347
356
374
385
384
370
334
314
314
313
327
325
319
322
322
326
234
596
379
310
317
322
335
352
366
370
360
327
300
300
304
310
320
313
315
318
322
245
616
428
315
322
326
335
352
370
377
373
346
316
312
316
318
339
334
331
333
335
322
392
476
341
327
330
337
350
363
375
372
353
320
300
298
298
316
309
303
303
307
304
284
418
346
302
309
317
330
348
361
361
351
320
300
297
304
322
323
311
314
321
326
257
567
416
324
332
341
352
373
390
392
386
354
326
321
327
328
343
342
338
341
342
338
317
516
364
330
333
341
351
371
384
385
370
335
314
314
320
321
331
318
320
321
321
240
625
419
312
317
322
332
350
367
371
368
335
305
301
302
304
322
316
312
317
320
295
443
452
329
322
327
337
350
372
382
382
364
330
321
324
324
342
343
340
344
345
347
287
527
383
337
339
342
354
370
380
377
366
329
304
304
299
318
312
303
301
304
306
259
443
358
306
308
313
329
345
362
360
347
319
295
296
294
315
315
303
309
312
318
248
532
393
320
325
334
349
367
384
389
380
348
325
323
326
334
344
335
336
339
340
274
591
447
332
334
336
345
358
374
380
374
344
311
305
307
310
322
312
311
313
318
277
497
438
312
311
318
327
343
362
369
369
347
312
303
309
309
324
317
315
322
324
307
421
473
331
324
327
336
350
372
380
378
360
323
314
317
316
336
328
326
328
330
325
317
513
350
322
325
330
342
358
370
372
358
318
300
302
300
317
314
308
308
310
310
223
558
360
300
307
313
324
339
354
358
350
319
301
303
306
315
329
322
328
327
330
270
542
439
322
324
333
343
354
370
374
371
346
318
309
310
321
329
320
323
326
328
285
499
422
323
326
332
341
357
370
375
371
351
323
309
313
318
340
333
325
331
334
331
346
454
362
336
340
349
359
379
390
388
372
338
320
323
322
335
342
335
336
336
339
258
614
432
330
336
341
353
371
387
393
388
359
332
328
331
335
352
344
338
339
343
320
417
472
344
334
340
345
356
377
382
378
356
321
301
304
296
319
312
302
303
301
302
236
463
351
287
290
293
305
325
342
346
334
303
280
278
282
305
308
301
304
315
317
251
562
420
322
329
333
348
365
385
390
384
352
326
323
328
330
352
343
337
341
344
328
416
483
352
338
345
351
364
382
393
390
371
334
313
315
316
332
323
316
316
320
318
271
497
351
312
314
322
337
357
371
374
359
323
301
302
302
320
315
309
317
318
319
249
538
379
315
321
327
341
360
380
382
369
330
311
307
309
320
322
317
317
323
326
240
602
404
324
331
338
352
367
383
384
377
339
314
308
308
315
322
311
310
312
312
225
613
405
302
306
312
323
341
357
364
360
332
304
303
302
310
319
308
307
309
312
233
553
401
304
307
312
323
340
362
362
356
330
303
299
295
317
312
304
307
315
315
266
462
371
317
327
331
345
368
385
386
376
342
324
324
326
349
338
335
335
339
336
323
481
373
337
340
346
357
375
388
388
371
336
319
318
319
336
327
325
327
329
311
414
464
334
324
329
337
352
369
381
380
359
323
313
315
323
333
323
325
329
332
253
637
440
325
330
336
347
361
378
381
380
350
319
314
313
330
323
319
320
323
321
268
541
355
314
320
326
336
352
364
365
354
315
300
300
304
316
309
308
310
312
264
534
442
307
310
316
325
340
358
364
365
343
311
306
307
313
321
314
316
319
322
236
648
423
321
326
333
343
359
373
378
375
347
320
316
320
332
332
324
326
329
330
242
583
382
323
325
332
344
356
367
370
363
327
302
302
301
318
309
305
309
313
304
336
473
324
307
313
321
335
347
357
358
350
314
299
304
303
324
315
310
312
317
304
382
473
327
317
321
330
342
356
365
368
357
320
306
309
310
327
323
318
321
326
308
395
472
334
320
326
334
346
363
368
368
357
324
314
313
314
330
323
318
314
320
297
413
405
325
314
317
326
340
358
360
361
347
319
299
300
309
322
308
307
314
317
273
500
415
322
322
331
340
356
379
385
382
364
336
329
335
334
353
341
336
340
341
313
478
448
345
341
342
352
364
379
386
382
360
327
317
316
317
336
331
323
322
325
321
330
486
347
322
325
334
345
362
374
375
360
324
312
312
313
331
326
323
328
331
333
289
506
377
336
341
351
365
383
396
396
384
347
327
329
321
334
335
325
325
325
325
247
538
398
311
319
323
328
347
363
359
353
321
296
291
292
314
308
300
296
301
305
229
535
388
303
311
321
335
354
375
381
370
341
317
313
319
325
338
330
328
330
336
284
551
444
334
337
342
352
370
388
398
394
366
333
326
329
330
346
335
331
332
334
325
357
492
343
322
327
333
347
369
379
379
360
320
305
303
304
318
320
314
315
319
322
225
627
393
309
313
318
330
347
362
369
365
331
303
303
306
308
322
317
319
319
321
271
541
450
320
324
328
339
354
373
382
382
356
318
308
309
311
323
327
318
318
320
321
223
613
383
307
308
313
325
342
358
361
355
323
295
293
296
297
314
308
306
308
311
292
405
462
318
309
315
323
337
356
369
369
358
320
308
309
313
318
331
323
327
330
334
269
593
459
333
339
350
355
371
391
395
394
371
337
326
322
321
331
333
323
322
321
320
247
513
399
309
315
317
330
343
361
362
351
327
301
292
296
302
319
305
305
308
310
300
363
404
332
310
315
328
342
362
378
381
365
334
320
320
326
335
348
337
339
340
343
293
553
458
342
344
348
358
374
390
400
394
371
336
324
325
328
335
342
330
329
328
331
249
631
427
317
321
324
334
349
368
376
374
341
309
303
304
303
321
320
313
315
319
322
228
611
382
313
318
325
334
353
370
374
367
333
309
311
314
315
332
325
321
323
325
320
352
507
347
327
334
341
352
372
383
383
369
331
312
313
317
318
327
318
318
320
320
247
613
433
309
311
315
323
340
359
364
366
341
306
299
302
305
322
317
313
317
320
320
267
509
360
323
326
333
347
364
375
379
371
337
315
317
317
323
331
319
317
321
323
263
517
419
314
320
319
323
342
357
363
356
337
306
292
290
294
306
297
293
295
296
289
351
397
322
301
309
317
331
352
362
365
349
315
297
296
302
309
318
310
310
314
318
250
562
419
309
312
320
329
344
361
373
372
349
318
314
319
319
338
336
331
334
339
343
264
590
398
336
342
351
361
379
395
397
387
350
324
320
321
321
332
324
321
322
323
298
435
463
318
310
312
317
330
348
358
356
335
296
282
282
282
287
297
287
285
288
290
222
547
402
278
284
288
300
316
332
340
339
315
281
274
277
283
301
302
295
299
306
311
221
593
400
313
318
325
339
351
368
373
365
336
310
312
310
313
333
326
318
319
322
324
290
459
364
320
327
333
347
368
383
379
372
334
313
312
313
327
333
320
321
318
326
287
491
428
329
328
336
348
367
386
396
395
378
346
333
335
341
351
357
344
342
348
355
303
545
467
349
342
348
352
368
389
389
391
367
327
315
318
318
320
329
321
319
331
321
277
533
448
320
321
325
332
351
372
376
373
345
304
295
296
299
304
309
300
300
306
306
242
570
428
300
304
310
318
333
354
360
360
331
296
278
281
285
292
288
291
288
285
283
204
574
378
254
252
253
258
271
290
302
295
270
231
230
228
233
246
258
241
253
256
265
196
530
376
287
300
304
329
354
390
377
404
361
340
343
328
331
364
339
330
313
314
313
281
546
447
369
370
376
388
407
423
412
409
390
349
341
337
336
364
369
346
356
361
362
294
539
429
353
357
368
378
403
420
406
397
377
366
341
345
362
353
361
352
347
344
346
270
578
422
326
341
333
339
358
370
376
371
340
310
307
308
309
315
319
314
310
314
312
237
547
400
300
305
310
321
336
353
357
349
327
299
289
293
296
314
303
298
296
305
292
381
396
331
313
322
335
353
372
385
384
371
335
319
320
323
335
341
329
332
334
338
265
593
430
329
332
340
353
369
388
399
394
365
336
328
333
334
349
343
338
341
347
346
346
494
370
352
353
355
366
385
393
393
382
344
325
323
320
335
331
322
325
325
326
240
577
377
303
306
308
315
329
341
342
336
301
272
269
270
279
277
272
268
270
270
194
513
349
260
265
271
283
302
321
326
328
303
277
276
278
302
302
297
305
307
310
239
531
398
313
316
326
340
358
378
381
378
352
332
329
328
347
334
333
329
330
332
306
459
370
330
333
343
355
379
393
395
383
356
333
335
339
354
343
339
345
349
337
400
464
368
352
356
364
377
398
411
413
401
367
353
354
359
372
364
361
362
362
322
542
466
357
355
356
364
381
395
402
399
378
344
330
331
339
343
333
334
337
339
259
621
418
319
325
334
343
360
378
383
378
352
327
323
318
331
320
317
319
321
319
289
499
349
320
327
336
346
364
377
379
368
333
317
318
320
333
328
325
329
330
290
503
443
322
320
322
330
343
357
361
354
337
299
286
288
295
302
294
294
297
299
242
523
410
298
303
309
319
333
351
354
354
336
302
298
295
301
315
304
301
303
306
244
517
401
304
307
316
325
341
360
368
366
344
319
307
309
319
321
310
304
307
311
245
519
388
306
311
320
328
348
362
367
357
332
308
302
307
313
321
309
308
315
317
252
564
418
316
320
324
334
352
369
372
369
345
314
308
314
317
334
326
325
327
332
306
476
451
332
328
335
346
365
384
393
393
375
342
330
331
331
347
339
339
341
345
334
375
494
361
342
345
349
362
379
391
392
378
342
324
322
323
336
332
325
322
322
323
241
571
377
318
321
329
339
353
365
371
363
332
308
310
314
321
330
323
321
325
329
257
601
427
321
329
336
348
364
383
385
383
360
328
322
326
326
345
339
336
338
339
323
405
465
346
335
336
345
359
371
379
376
365
333
319
316
316
328
333
324
323
323
327
252
517
407
314
318
319
332
349
365
363
361
337
306
301
303
311
323
310
305
309
314
271
499
407
318
324
328
344
363
380
387
386
368
338
327
328
337
351
351
339
335
342
340
270
551
407
332
338
343
355
373
384
382
373
343
320
315
318
321
339
329
323
326
325
308
404
438
330
316
321
331
347
367
377
377
360
324
313
315
312
326
329
322
323
327
328
249
579
413
331
338
341
358
373
387
392
377
347
319
314
314
319
332
316
310
303
304
246
489
388
293
285
293
305
318
334
338
332
302
274
264
263
261
279
265
262
261
259
242
320
370
265
247
252
262
280
300
308
306
291
254
241
247
249
266
269
266
266
269
268
195
528
344
283
290
303
319
337
358
368
358
327
304
310
316
326
339
332
338
342
342
265
639
437
339
345
349
361
377
395
400
400
368
337
339
344
351
364
355
357
364
372
297
655
468
354
364
368
377
391
408
416
414
387
355
346
350
354
363
353
356
359
361
301
609
471
355
361
369
378
392
410
418
414
389
351
342
346
346
355
341
337
336
340
296
534
451
325
323
327
336
348
366
375
371
356
322
312
316
322
337
331
327
331
332
312
428
449
344
335
340
347
361
373
379
381
367
336
319
317
320
330
320
315
312
311
295
353
387
317
290
294
292
305
319
326
319
297
270
247
243
244
257
246
239
241
238
232
282
323
260
233
240
252
262
278
289
287
273
244
236
247
247
268
262
262
269
270
272
215
444
334
279
287
294
310
330
344
352
351
328
312
319
329
341
350
344
347
353
358
297
581
457
362
363
367
375
398
410
409
402
375
343
340
337
348
350
341
341
341
347
294
538
441
349
353
359
367
387
404
409
408
386
357
349
354
355
372
364
358
364
369
371
324
516
410
362
367
372
386
401
412
413
402
369
347
348
352
359
371
359
362
361
362
331
496
463
362
360
358
368
377
399
398
395
375
336
324
324
320
332
335
323
320
324
319
253
517
406
306
312
318
330
344
363
368
364
339
308
301
300
300
322
317
313
319
322
324
278
476
366
319
323
332
348
369
386
390
380
344
324
322
323
330
342
338
337
339
340
296
516
445
334
335
339
344
358
376
386
385
360
323
312
309
311
323
311
307
311
311
304
281
447
326
300
308
315
327
344
358
366
351
321
296
296
296
314
307
305
302
308
310
254
461
370
308
319
326
334
353
367
378
365
340
321
315
317
330
322
318
314
320
317
287
441
362
321
322
331
343
365
372
377
360
322
305
306
302
320
312
304
303
306
302
243
490
353
305
307
315
325
339
356
359
351
314
293
293
296
315
306
298
301
302
301
265
494
346
308
311
324
333
356
371
377
369
335
320
323
324
343
334
335
338
345
326
462
485
354
343
351
364
376
396
406
409
391
356
344
345
347
355
346
346
350
351
272
638
445
337
340
344
354
368
382
388
384
356
326
323
326
339
333
332
334
333
328
304
513
356
327
335
343
360
373
386
394
385
358
336
340
350
354
343
340
349
345
292
542
446
335
338
346
351
372
378
382
379
364
326
315
314
324
324
315
319
321
314
317
418
350
312
319
326
342
361
370
369
357
326
308
308
311
321
312
306
311
312
263
513
412
311
314
318
325
344
358
364
362
342
310
304
305
314
314
306
310
311
314
233
563
376
312
319
326
341
366
378
381
370
338
312
320
324
324
313
312
316
316
262
542
416
311
314
319
329
346
363
372
369
342
310
305
303
319
310
305
307
311
301
364
462
318
307
311
324
337
356
367
370
355
323
310
314
327
328
328
338
343
347
302
516
395
355
358
365
377
396
406
404
395
350
329
324
332
329
316
315
307
302
257
430
350
287
286
288
298
307
318
315
302
275
251
248
259
257
243
243
244
242
187
416
308
243
253
261
278
295
313
319
315
286
266
272
275
300
295
299
305
307
246
567
404
302
306
314
324
345
364
372
383
349
321
314
321
349
328
324
311
330
280
571
437
325
330
338
348
346
377
379
377
352
321
329
332
341
315
318
321
323
255
599
440
315
314
320
344
365
391
404
407
383
351
347
350
364
360
360
361
365
297
575
447
342
350
356
363
375
390
394
388
364
336
329
339
342
334
330
335
343
281
507
395
326
334
335
351
369
376
381
366
338
311
312
318
330
318
316
319
323
248
554
407
315
320
329
337
355
368
370
365
334
308
304
306
323
316
311
314
318
283
484
433
317
318
322
330
344
361
371
372
352
318
317
316
333
333
327
331
334
331
327
493
357
334
341
349
363
384
397
398
384
347
333
334
337
343
336
336
337
338
253
577
390
325
327
329
337
347
357
357
344
306
281
279
282
287
278
275
277
277
206
535
375
267
271
279
288
303
323
331
329
300
268
268
262
276
273
271
275
278
264
340
420
294
281
287
296
310
329
340
346
332
298
290
295
306
323
317
321
325
331
247
605
412
330
343
349
364
379
395
401
399
365
338
337
341
361
358
346
348
345
313
470
470
341
344
348
356
366
387
397
393
377
339
332
341
345
358
348
352
358
370
295
576
455
353
368
373
374
388
395
406
397
373
337
333
335
344
328
329
334
330
287
499
408
325
312
323
329
339
363
359
360
341
310
304
313
320
323
316
320
322
320
309
438
363
322
328
334
348
366
379
380
369
340
325
323
330
346
338
332
337
340
321
432
459
346
335
338
345
359
375
389
381
360
326
312
318
329
333
327
323
319
339
237
602
407
319
321
323
337
353
363
366
366
334
303
306
307
327
322
318
328
323
316
384
452
344
330
337
351
363
381
386
391
376
341
321
325
325
327
318
313
314
307
233
553
386
294
287
300
299
314
325
331
321
281
261
238
242
253
242
231
226
227
224
226
322
258
235
236
256
254
270
275
276
264
237
223
223
233
245
232
235
240
249
199
458
351
266
279
289
309
330
357
376
376
357
331
329
338
351
366
361
364
368
369
301
622
466
371
379
396
405
421
434
439
426
395
374
367
366
371
374
359
355
357
356
270
593
427
350
355
362
373
394
411
417
406
369
341
336
339
344
349
342
339
342
347
271
546
421
334
337
348
356
372
388
389
379
348
320
315
314
321
331
321
321
322
327
263
544
418
321
323
331
342
354
368
374
362
331
304
296
297
298
320
311
312
312
315
297
358
424
320
305
303
313
335
351
359
356
338
302
287
284
285
287
298
289
292
296
299
225
569
390
294
301
308
316
333
350
357
356
329
299
295
296
294
311
303
295
299
304
304
283
487
341
312
316
323
336
354
369
372
359
325
306
305
308
309
332
327
324
329
333
310
448
463
342
342
344
354
367
384
394
394
380
344
331
333
338
337
352
344
343
346
351
308
532
459
339
339
345
352
364
383
394
393
372
333
319
319
321
322
334
324
320
320
322
269
539
432
316
320
325
333
348
364
372
372
355
321
313
316
321
327
336
331
329
334
337
272
537
419
317
317
329
339
356
365
367
375
346
320
306
311
309
330
322
321
324
328
320
351
410
352
323
336
338
354
369
379
381
370
342
325
321
325
332
340
333
335
334
338
280
547
426
339
338
347
352
367
382
384
379
351
325
310
315
312
329
326
317
317
319
322
252
523
380
319
327
336
349
365
383
386
380
351
324
319
318
320
338
327
324
327
333
322
361
453
345
331
335
340
355
374
387
391
379
346
334
328
331
337
344
333
333
336
336
281
537
420
327
328
329
339
357
378
385
378
348
318
305
303
299
310
293
287
285
286
278
265
370
300
259
265
271
280
296
305
301
289
255
232
226
230
234
248
237
234
235
238
212
357
333
243
239
248
254
271
295
307
308
296
266
255
258
265
268
286
282
278
286
290
292
249
465
338
305
312
323
335
357
375
383
375
344
325
324
331
335
350
357
348
352
355
356
304
566
460
355
359
365
373
386
408
416
417
393
359
353
350
350
348
369
362
353
358
359
363
321
484
407
363
364
373
385
399
417
419
409
380
354
350
348
348
368
366
358
355
360
354
297
554
429
346
351
357
367
383
400
402
396
371
342
331
331
335
337
354
343
336
337
341
332
360
434
355
331
332
341
351
372
384
381
369
336
319
316
316
320
329
340
331
330
333
337
304
484
430
334
333
336
342
356
375
386
385
366
329
313
310
313
314
326
329
319
321
322
323
250
586
408
319
332
337
341
356
376
379
375
352
318
317
307
312
316
329
322
317
327
325
318
400
416
339
328
332
342
346
372
388
378
369
331
315
310
313
310
325
313
298
305
307
301
265
426
338
289
286
296
303
317
330
324
308
275
247
242
239
242
248
250
235
236
237
239
167
492
328
228
234
239
255
269
290
301
300
277
248
241
248
257
267
285
284
282
286
293
267
460
408
310
315
322
338
357
381
395
400
386
353
343
348
354
362
378
367
370
374
381
342
557
487
383
384
391
402
413
433
443
434
415
378
363
363
365
376
380
384
381
384
380
311
617
463
362
367
373
379
389
404
404
401
377
351
336
338
340
358
344
335
340
341
334
289
469
375
321
326
334
345
359
373
371
367
338
311
308
303
323
319
305
309
314
312
262
517
392
307
311
318
330
346
364
373
364
344
313
302
308
316
324
308
325
306
314
320
287
467
354
309
349
338
332
357
374
384
373
342
321
326
319
333
328
327
331
328
339
267
574
423
324
332
337
352
359
383
387
382
358
324
320
321
323
337
321
322
328
329
311
416
453
327
322
328
335
348
364
374
373
355
323
304
308
307
321
313
312
313
314
316
264
512
349
310
316
329
335
353
366
370
363
331
312
313
312
330
320
318
321
327
328
242
603
389
326
330
340
351
367
383
388
385
358
332
331
334
359
342
343
343
352
359
280
610
445
356
361
366
376
385
397
405
400
373
348
331
336
337
365
304
329
324
330
289
516
423
330
327
327
331
351
367
367
364
339
312
301
302
310
320
304
304
305
312
287
435
399
320
315
323
333
351
369
380
375
360
328
317
316
318
333
332
322
324
326
329
248
584
399
322
326
334
340
359
373
373
369
337
310
304
309
315
325
316
316
319
317
276
514
418
315
316
322
331
344
362
368
367
347
315
307
309
309
328
322
317
319
325
320
321
470
353
333
334
344
357
378
384
390
377
345
329
329
323
345
335
327
330
330
329
272
479
384
322
328
334
343
361
374
376
364
336
316
309
312
329
327
315
316
321
325
253
551
404
316
320
328
338
356
373
379
371
346
318
315
317
323
337
329
328
331
334
309
454
446
340
333
340
348
362
380
391
392
376
341
326
329
331
345
337
333
333
336
337
268
543
379
327
330
338
348
364
376
378
371
337
313
310
314
321
328
319
321
323
327
266
571
427
320
324
330
339
355
372
378
378
355
323
315
319
319
337
330
328
332
335
332
323
491
361
333
338
347
361
376
387
390
382
349
330
331
330
344
345
338
339
343
345
263
595
419
335
339
345
357
367
385
388
378
355
320
322
322
328
338
327
326
331
330
294
488
418
330
329
329
340
358
371
380
371
358
328
314
313
316
337
320
320
319
325
317
367
412
343
326
333
338
355
375
387
385
373
349
334
334
341
363
345
341
346
345
343
309
523
379
330
338
341
355
365
375
372
364
332
311
308
318
329
333
317
314
318
319
268
525
403
313
312
318
329
344
364
369
364
345
314
302
308
309
327
323
316
321
325
332
256
598
408
330
335
340
355
373
391
398
390
361
336
326
328
337
339
333
336
337
339
279
584
442
331
331
336
344
362
378
388
386
356
325
317
320
321
342
335
326
331
338
331
273
577
368
328
334
344
355
370
382
381
373
337
312
310
311
314
323
314
310
307
309
246
596
407
291
294
295
304
316
331
336
334
310
274
263
258
257
272
266
256
259
259
256
228
400
295
250
256
266
278
298
314
317
310
278
257
255
262
267
288
281
282
286
291
266
430
412
307
304
314
328
345
362
373
376
366
334
322
324
329
339
349
340
342
344
349
318
468
449
348
345
347
356
369
390
398
403
381
351
334
334
335
345
353
347
348
340
349
318
484
449
349
343
349
355
365
381
386
381
359
321
304
298
299
294
304
293
285
286
284
262
357
395
276
263
268
272
283
302
315
317
299
259
241
241
245
243
265
260
260
270
274
271
282
419
300
279
286
294
311
331
343
347
339
301
285
289
291
290
310
311
304
311
317
314
241
536
375
315
324
333
345
364
383
386
383
351
325
323
326
328
339
345
337
339
341
344
259
612
428
336
340
347
355
373
389
395
391
365
332
322
326
328
335
343
332
334
335
339
262
575
426
329
334
339
352
368
386
389
387
367
339
331
332
335
351
355
348
350
355
362
287
555
437
355
359
364
377
388
406
413
403
378
346
340
338
338
355
346
338
343
343
343
326
454
381
343
347
352
364
381
393
391
380
349
329
326
330
333
349
334
330
332
333
307
433
444
331
324
327
334
350
359
372
373
358
327
311
310
312
329
330
333
327
314
322
242
579
402
312
313
314
321
332
353
358
352
324
300
294
299
306
320
316
302
311
314
294
419
450
321
313
321
331
339
359
370
376
359
326
311
317
315
335
327
325
331
327
332
282
518
372
330
332
340
347
365
380
383
375
335
317
318
313
329
325
320
322
325
329
254
581
409
324
325
331
337
352
372
372
370
344
315
307
311
312
327
316
311
316
316
265
519
424
310
315
322
329
342
358
368
367
351
320
313
318
320
334
324
320
321
320
318
311
425
337
310
313
322
334
347
357
358
348
320
299
298
302
315
312
301
303
305
308
260
434
368
305
305
310
320
340
356
355
348
325
307
305
313
328
343
327
324
329
331
294
513
448
339
339
341
353
368
385
389
390
374
340
335
332
334
347
346
340
342
343
342
257
614
416
333
338
343
351
366
378
382
378
353
323
319
322
324
340
332
331
333
337
311
442
465
333
329
333
339
353
371
380
379
365
329
318
320
325
331
331
327
329
331
333
256
603
400
333
341
350
358
372
392
396
393
365
333
330
332
334
346
337
339
341
339
294
516
434
329
330
335
345
359
370
380
377
361
328
316
316
326
341
328
329
331
336
315
449
422
340
339
347
358
371
390
399
395
381
350
335
336
335
353
345
336
337
335
332
264
533
379
317
320
327
333
345
356
350
341
308
278
275
275
284
285
272
275
280
271
189
556
365
263
264
272
282
296
310
318
317
289
260
257
258
269
274
278
276
275
283
206
584
382
288
296
307
324
340
356
359
362
337
311
312
315
334
332
327
331
334
337
264
562
387
334
335
342
351
366
372
371
358
322
296
294
293
302
290
289
288
288
259
412
401
281
275
278
286
299
314
321
322
311
283
269
266
285
280
276
275
281
281
220
448
355
280
288
296
308
326
341
345
341
312
295
289
304
310
299
303
307
311
260
518
409
322
330
337
350
366
384
391
387
366
338
334
335
355
349
344
349
351
347
310
506
384
341
344
351
362
377
388
392
380
345
330
331
340
346
337
339
341
343
279
613
443
337
342
351
361
379
395
402
401
375
344
344
346
361
352
352
353
356
341
429
496
364
354
357
365
378
393
400
401
386
349
338
334
350
343
339
342
342
342
265
586
390
336
337
345
355
371
383
389
380
347
326
327
332
340
332
334
336
336
262
638
435
330
334
339
350
364
379
386
385
361
331
329
330
348
339
337
340
342
328
414
485
351
341
347
355
366
384
392
393
381
348
335
337
344
346
338
340
342
344
256
632
415
336
339
345
354
368
381
384
382
352
327
325
324
341
332
327
327
330
322
351
483
344
324
327
334
346
360
369
369
359
327
312
316
315
331
323
319
322
324
278
532
443
317
319
323
330
344
356
363
362
344
312
303
306
308
319
309
310
312
313
242
538
407
303
309
318
326
342
358
357
357
334
309
301
300
314
310
301
308
304
308
279
406
358
311
314
327
338
352
367
366
360
332
317
316
318
337
324
321
325
330
318
398
413
352
333
339
344
360
374
382
377
365
333
321
320
320
339
335
324
327
329
324
324
462
351
324
328
336
351
366
379
378
365
332
318
321
320
338
333
326
331
333
324
335
482
358
334
339
347
359
378
389
390
376
343
331
334
333
354
347
342
342
347
339
362
473
360
345
341
350
362
382
390
387
373
337
319
321
322
331
321
318
318
322
299
442
411
326
324
323
334
347
369
375
374
356
326
315
317
323
338
327
325
325
328
290
492
430
328
327
334
344
361
379
387
385
363
331
318
324
323
343
335
331
333
336
319
410
463
343
329
334
341
354
372
382
380
360
323
311
315
314
333
324
319
319
323
314
322
477
340
316
323
331
344
361
373
374
359
325
311
310
312
326
326
322
322
325
329
249
566
382
327
332
339
353
368
383
388
380
349
326
325
325
333
340
332
332
333
331
245
594
400
308
310
312
320
333
346
348
339
309
278
270
267
272
279
266
266
265
267
196
483
351
250
254
256
266
277
293
298
295
269
242
232
232
244
258
246
245
253
253
213
453
353
268
273
282
299
312
335
343
339
319
297
291
296
304
321
312
313
318
322
302
435
418
339
330
337
346
363
381
390
390
370
340
327
330
331
347
352
341
345
348
351
274
598
416
347
352
358
370
387
406
407
400
369
346
343
349
350
362
355
356
358
364
307
590
468
355
361
364
372
387
406
413
411
387
357
350
355
357
374
368
367
370
373
351
469
495
374
368
371
379
390
404
411
411
386
352
338
336
335
344
334
327
324
322
303
396
398
318
305
307
312
319
336
344
341
322
288
274
270
274
289
276
271
269
276
268
331
371
299
283
289
301
314
334
344
343
328
297
282
287
289
308
304
300
302
305
307
251
492
353
306
311
317
327
344
359
361
349
317
297
298
296
314
313
308
311
314
318
234
586
385
314
317
325
336
355
369
374
367
338
313
310
312
325
328
322
325
329
334
248
625
415
329
334
341
352
368
385
389
385
357
330
330
331
341
346
339
340
342
343
264
626
437
337
341
344
356
372
388
393
387
361
336
328
333
338
347
334
338
339
338
280
553
423
334
338
341
350
364
381
384
382
357
329
322
323
336
340
331
332
334
337
274
544
419
334
342
349
362
378
393
396
388
366
339
335
336
343
352
342
342
343
346
298
541
447
337
338
343
351
366
380
385
383
361
327
320
324
324
341
332
325
327
331
313
411
462
335
328
331
341
354
370
380
380
366
330
318
320
319
333
326
326
329
334
311
443
464
338
333
338
347
360
378
389
389
373
340
328
329
334
345
337
338
341
344
303
504
459
336
338
342
351
360
381
384
382
362
327
321
315
327
327
315
317
319
324
259
524
411
316
323
327
339
354
371
371
367
342
317
315
312
332
327
322
326
329
330
285
471
385
333
338
350
359
379
394
394
384
352
332
333
334
353
349
339
346
345
341
316
480
373
335
336
344
354
374
384
386
365
336
318
316
319
334
323
322
318
327
306
416
424
324
317
322
329
342
365
373
370
349
316
304
306
321
332
318
315
322
323
259
572
411
321
326
333
350
366
382
389
383
355
326
324
322
340
342
328
332
337
333
262
550
396
326
332
340
352
370
380
387
371
337
318
316
319
336
325
324
323
326
301
456
434
325
322
326
335
349
368
379
376
355
319
309
309
328
330
320
320
325
326
257
532
389
323
330
336
350
368
386
389
375
341
319
324
329
340
332
331
334
335
286
534
441
329
331
334
343
362
374
384
378
351
322
312
313
332
320
317
322
326
318
297
472
357
331
331
336
346
371
385
385
363
331
307
310
322
324
310
316
313
318
245
540
370
314
322
328
340
361
376
380
365
330
312
311
321
328
317
316
320
325
245
606
407
313
320
327
336
353
368
371
365
332
308
309
310
321
309
312
313
315
244
610
413
308
314
322
333
349
368
375
372
344
317
315
320
333
325
325
327
334
262
579
435
330
336
347
354
373
386
395
392
362
345
337
342
352
340
342
343
340
269
557
420
328
325
329
340
349
367
374
360
336
307
307
310
324
313
306
311
314
242
555
407
313
318
328
336
356
369
372
362
331
310
306
313
329
320
316
320
322
260
576
427
318
325
333
342
361
380
383
382
352
327
328
329
348
341
338
340
345
302
535
453
345
345
348
357
370
386
394
388
364
328
321
318
334
325
319
321
324
303
407
432
324
313
314
321
329
346
354
350
330
294
282
283
288
296
287
285
288
290
213
522
357
284
293
303
316
330
345
349
341
312
293
293
298
315
308
303
309
310
256
506
408
295
295
303
309
322
337
341
332
306
278
267
262
284
269
262
267
267
244
374
352
273
265
272
281
297
315
321
319
296
269
258
258
267
277
268
269
275
279
203
532
360
279
288
295
306
324
340
346
338
314
283
284
295
311
310
301
313
321
300
352
441
331
315
323
328
348
352
376
372
349
337
304
306
318
333
328
317
314
327
247
620
431
326
323
333
344
362
375
385
374
350
318
323
319
334
328
322
329
334
316
366
500
349
334
334
343
366
405
361
379
384
344
328
320
332
344
336
335
343
339
258
649
435
339
343
344
351
371
382
389
376
357
321
318
321
329
341
334
333
338
335
330
499
356
339
352
350
361
379
389
390
377
346
339
330
335
347
332
335
329
339
270
539
432
324
339
338
354
369
374
384
379
351
331
325
324
338
337
329
328
335
333
312
448
376
331
338
345
361
375
382
383
368
338
320
322
323
336
335
332
334
335
333
333
490
361
333
337
346
357
377
383
382
370
335
320
320
321
341
331
327
329
332
297
492
458
328
326
333
343
355
372
378
376
360
327
320
322
325
332
323
322
323
327
247
543
399
309
316
317
333
347
359
360
355
323
298
297
299
315
307
300
301
307
290
408
400
319
312
318
330
340
361
371
369
349
319
308
312
321
331
323
318
323
328
263
568
419
326
331
340
350
368
385
390
383
353
327
323
323
337
343
330
330
333
337
257
580
399
327
330
337
347
363
379
381
371
335
312
311
312
327
321
315
318
318
312
343
458
336
314
319
331
342
361
372
371
356
318
306
310
312
328
318
316
320
323
273
542
431
319
322
330
339
356
377
387
385
356
327
317
323
328
336
329
332
333
337
255
612
416
330
334
342
352
367
382
387
376
344
318
316
314
331
332
323
324
326
328
264
534
371
322
325
333
344
363
376
379
370
336
317
316
318
340
330
327
330
333
320
396
459
345
334
339
350
361
381
389
387
370
341
327
327
333
344
335
334
335
336
289
525
430
328
328
330
341
355
371
375
373
346
321
308
309
322
326
314
314
319
321
253
552
405
316
320
324
339
354
373
376
370
345
318
309
312
321
330
317
319
323
324
258
569
419
319
326
331
341
359
374
381
376
351
321
315
320
328
338
331
327
331
333
265
586
428
326
331
335
345
360
374
382
375
349
326
320
320
323
332
323
323
325
328
246
564
408
316
318
321
331
348
364
370
361
337
308
301
303
319
316
309
315
314
320
244
541
391
317
323
334
344
362
379
382
376
349
325
324
324
338
340
330
329
334
335
254
594
409
320
328
334
345
357
374
379
370
339
314
309
310
321
324
314
317
318
321
233
595
385
310
315
321
335
351
364
368
359
327
301
299
303
314
315
306
307
310
314
227
581
375
309
315
323
334
352
368
371
363
330
312
309
313
321
325
319
321
324
325
238
601
387
316
322
329
339
355
366
371
360
330
304
303
303
316
319
312
315
319
322
242
557
382
316
322
328
339
358
374
375
368
339
319
315
311
328
330
320
321
327
325
259
492
384
319
324
330
342
357
373
373
364
334
314
312
311
333
324
315
321
320
322
272
463
369
317
326
334
345
362
377
379
365
336
314
312
316
332
329
321
320
325
325
251
550
384
319
323
332
341
359
376
375
365
335
310
310
312
328
326
318
320
321
324
242
582
387
316
320
331
342
362
376
379
368
335
313
313
312
329
323
322
322
324
324
259
543
367
318
322
329
343
357
370
372
360
327
307
307
309
325
315
313
316
317
304
386
458
327
315
320
326
343
362
371
370
355
320
308
311
315
324
317
317
319
325
261
583
428
318
324
327
340
355
374
380
378
355
326
322
320
338
341
337
336
340
341
268
539
401
324
333
333
344
357
365
365
357
324
299
296
298
305
293
282
289
287
267
394
370
288
278
281
290
300
325
325
322
301
270
262
262
276
282
270
271
273
278
228
496
379
287
285
295
305
320
341
346
344
322
294
290
292
301
313
303
298
309
310
242
583
409
306
312
318
331
347
365
369
364
338
308
309
310
316
323
315
317
320
322
241
631
405
314
319
327
339
354
370
375
370
339
313
310
311
324
327
323
327
330
333
247
605
407
335
343
351
359
376
393
397
387
360
338
335
330
351
341
337
341
336
340
288
474
383
334
338
340
354
369
382
383
372
338
320
318
319
338
330
321
325
324
323
303
450
363
323
331
339
352
369
384
379
370
335
317
316
320
338
337
328
330
334
336
252
590
403
325
332
337
348
365
382
387
379
350
325
323
327
336
344
334
335
337
339
259
633
429
331
338
344
352
368
384
388
383
354
325
320
321
329
333
324
325
329
330
249
628
417
321
323
327
334
349
364
366
361
331
300
296
297
305
309
301
302
302
305
217
562
374
292
292
296
304
314
327
332
316
286
264
254
252
264
256
250
252
249
245
257
345
273
245
245
257
266
282
293
292
276
251
234
234
247
255
242
246
249
256
224
417
359
268
267
279
290
304
323
330
331
314
285
279
284
291
307
302
304
307
314
263
531
427
319
324
334
342
360
377
386
386
365
335
330
336
348
353
343
346
349
353
273
645
442
344
351
356
367
382
397
400
394
367
340
335
337
353
349
341
342
344
346
270
573
399
343
348
359
368
386
400
399
393
361
341
339
340
355
344
339
338
342
333
366
448
362
338
341
351
364
383
390
391
370
344
326
326
337
346
333
330
337
338
296
541
436
336
341
349
358
372
392
393
390
367
337
327
327
336
349
333
333
335
338
281
574
439
326
330
335
344
356
371
379
376
353
323
313
316
322
331
323
320
323
324
254
609
425
314
321
324
336
351
368
372
370
345
317
312
316
326
330
322
327
330
331
243
644
412
320
324
330
343
359
372
376
370
340
313
312
312
330
325
319
323
323
324
267
523
368
323
327
333
344
364
371
375
364
333
314
312
318
329
317
314
317
316
292
455
417
324
318
328
331
351
367
371
373
356
325
314
312
328
329
317
319
322
326
257
572
413
322
330
338
346
362
377
378
376
348
320
317
317
330
333
323
326
325
329
243
608
399
322
326
336
344
360
373
375
367
336
312
311
311
329
322
316
321
322
319
277
515
357
321
326
334
347
363
374
377
367
332
316
318
319
338
330
328
330
332
326
344
497
347
324
329
338
350
368
373
375
360
324
310
311
312
324
316
315
317
316
269
533
432
308
309
312
319
335
350
355
354
333
299
289
291
299
303
294
299
302
304
222
583
398
299
306
313
323
339
353
363
358
333
310
304
304
318
321
308
310
313
310
245
471
378
304
316
322
327
350
361
357
348
323
296
297
298
312
308
300
306
309
301
373
409
337
318
327
337
353
372
379
381
364
333
319
321
324
340
331
329
333
336
312
452
453
340
334
338
350
363
379
388
388
368
336
323
325
330
341
333
330
335
338
271
618
437
326
332
339
348
363
379
384
378
350
320
315
314
334
326
320
323
326
325
284
507
361
321
327
332
346
365
374
378
366
330
312
314
321
331
324
325
329
332
266
583
444
331
337
344
353
365
384
386
383
352
328
322
321
337
324
323
323
329
315
353
422
341
319
322
331
339
360
369
367
351
321
303
303
313
319
303
306
306
313
247
548
409
309
314
320
332
352
367
371
366
339
312
306
309
322
325
317
318
321
322
240
587
398
320
326
333
346
362
377
381
372
343
319
319
320
337
333
327
328
331
330
294
511
361
326
329
337
347
363
374
378
363
326
308
309
308
325
314
309
310
313
291
411
445
314
304
308
316
330
345
353
351
332
295
282
285
284
298
290
289
293
294
235
539
407
288
292
298
308
324
340
347
349
325
294
287
290
295
302
294
298
301
307
222
591
393
304
311
318
331
346
361
365
360
331
302
302
303
315
319
310
316
319
321
238
565
377
317
321
331
345
361
376
381
375
347
324
328
325
344
341
340
340
344
330
413
460
352
347
348
358
371
382
391
392
378
346
329
329
345
340
329
328
331
334
279
475
394
326
328
331
347
361
374
373
360
328
307
304
312
324
312
311
311
315
267
514
413
316
316
324
331
346
364
367
364
342
313
304
308
323
322
311
314
316
319
247
531
367
311
314
321
335
352
366
367
356
324
304
305
312
319
311
311
313
318
239
613
411
306
312
319
327
344
359
366
360
331
300
301
301
316
306
306
310
314
279
480
440
317
317
324
334
349
366
376
376
356
323
312
317
333
327
323
327
332
332
290
522
368
329
335
344
357
377
390
391
380
346
327
327
329
342
333
331
336
341
272
609
448
336
341
348
357
371
384
392
388
359
327
319
313
325
325
312
308
311
307
242
447
349
284
289
290
301
315
321
320
306
272
251
241
241
256
247
238
231
233
207
364
325
239
232
238
247
266
281
294
291
276
247
241
245
251
272
263
261
266
271
227
470
380
281
283
292
303
321
344
352
350
330
299
291
297
299
321
310
310
314
320
284
498
437
327
327
334
345
363
385
394
392
373
343
334
339
340
360
352
352
358
358
339
459
487
362
357
363
372
385
405
415
416
394
360
347
344
345
360
353
346
351
352
339
422
448
360
349
352
359
376
394
402
402
382
350
338
332
336
358
349
342
345
347
344
344
474
377
343
348
357
370
386
398
397
381
344
326
326
329
340
346
334
338
339
341
255
619
419
332
339
342
354
370
390
392
387
358
325
323
329
330
344
336
332
334
337
288
533
448
329
329
336
343
359
376
381
380
356
320
311
311
310
328
322
322
321
325
323
310
470
351
321
327
331
346
368
379
382
367
331
316
313
310
325
327
312
315
324
327
257
518
389
320
330
335
348
364
378
384
370
341
315
307
312
319
333
323
320
323
322
280
513
413
317
319
326
333
348
366
374
367
348
313
302
302
306
323
320
312
312
318
317
239
548
378
313
318
327
338
357
371
376
367
333
307
307
312
315
333
321
321
323
328
297
480
443
326
327
331
341
355
374
383
381
356
318
307
307
307
320
317
307
307
304
302
217
534
351
283
284
288
298
310
323
323
311
278
252
245
248
248
268
259
251
256
256
229
365
374
256
250
251
263
275
299
309
309
295
260
252
250
257
278
277
270
276
284
286
224
473
353
293
302
311
329
346
365
361
357
332
307
303
313
321
331
324
324
329
332
288
543
431
337
341
350
358
375
395
400
399
379
348
338
340
344
363
359
352
355
358
359
277
602
422
353
358
368
378
396
412
413
404
372
347
342
349
353
368
356
355
357
358
321
535
466
354
353
357
366
378
396
405
405
382
344
333
334
334
349
345
335
336
337
340
255
574
394
331
334
340
352
369
382
381
374
343
319
318
317
324
334
327
323
326
328
293
491
439
327
326
330
338
352
370
380
381
363
329
314
314
313
329
328
318
323
324
324
245
546
393
314
318
326
336
354
369
369
362
331
306
300
303
310
321
311
308
312
313
276
489
399
312
316
318
328
344
365
374
372
353
323
308
311
317
337
334
328
330
332
335
262
556
395
327
337
344
359
377
393
396
386
352
329
325
329
337
349
339
336
340
345
320
450
456
343
337
341
348
359
376
387
385
365
327
313
312
316
330
326
319
320
323
326
237
621
404
317
321
329
339
357
373
378
374
345
316
312
316
317
334
327
325
326
329
321
370
477
348
329
334
344
358
377
390
390
379
339
322
323
326
335
340
331
331
335
337
256
641
429
327
326
334
341
357
369
376
373
343
313
308
310
307
324
315
312
316
318
307
352
451
335
313
320
328
341
359
371
373
360
326
311
308
312
325
329
320
323
324
328
251
590
419
325
332
336
349
362
380
380
377
346
316
311
310
317
323
312
313
312
317
296
435
404
320
314
315
324
339
354
368
368
348
318
302
302
303
325
313
308
305
313
315
247
523
374
314
320
330
343
363
382
384
376
345
319
317
323
329
343
336
332
334
340
321
432
450
351
340
346
352
366
384
395
393
377
342
322
324
325
344
336
327
327
327
331
244
603
399
320
328
331
343
356
372
377
369
338
310
306
311
318
328
319
315
320
322
282
511
426
319
316
324
332
349
368
379
379
358
324
315
318
318
339
330
325
328
331
331
254
554
391
331
332
337
352
367
382
380
375
337
313
312
306
324
324
313
313
316
318
248
562
413
308
311
316
332
347
362
371
366
336
309
304
305
311
321
313
308
312
320
293
433
418
321
321
335
346
351
370
387
379
360
328
319
319
322
345
339
325
326
333
334
256
577
388
327
331
338
351
370
383
386
377
343
317
317
318
325
334
322
322
326
329
244
643
420
319
323
331
340
356
375
382
378
347
314
310
314
320
326
320
322
324
324
239
650
418
317
325
330
342
355
373
377
375
347
316
311
317
326
327
315
321
325
328
236
630
394
320
325
325
337
353
372
373
364
334
311
304
302
321
315
315
312
318
313
316
485
334
309
315
323
336
352
359
359
349
319
300
302
307
320
311
311
314
319
265
568
437
315
321
336
336
348
363
383
380
362
322
318
329
331
336
336
339
335
343
271
538
400
330
333
342
348
367
374
376
368
342
318
310
315
326
312
309
310
319
270
511
418
315
313
322
344
366
352
363
370
340
331
297
306
337
314
314
329
316
314
279
457
366
318
330
347
357
380
377
385
371
338
324
329
333
341
327
332
342
338
313
443
456
344
327
341
341
364
372
385
382
362
323
312
308
316
322
318
318
327
324
257
570
435
320
321
330
334
351
369
374
368
343
310
306
307
325
321
316
316
318
321
260
521
359
314
321
333
339
359
375
375
363
331
311
311
314
328
320
326
320
328
259
595
435
321
324
325
344
357
362
374
376
345
313
316
316
339
325
324
327
323
313
336
437
337
317
321
330
340
357
373
369
354
321
305
303
314
319
308
309
314
315
256
468
376
311
314
325
335
354
369
367
361
328
310
311
318
335
323
329
330
334
298
500
431
338
333
341
353
359
382
386
388
363
328
316
322
327
335
325
322
326
328
243
621
412
313
321
327
334
351
365
371
367
336
309
307
311
321
316
312
316
316
310
340
477
335
317
321
327
342
359
371
372
357
319
306
310
312
323
317
317
321
322
245
622
422
313
317
323
334
349
365
372
367
339
307
305
304
317
309
307
311
312
306
309
489
333
312
311
321
334
351
362
365
354
313
299
306
308
321
316
322
320
323
254
582
437
326
328
338
344
363
374
386
382
358
325
322
320
332
331
324
327
332
324
337
422
358
327
334
339
351
369
377
372
359
332
314
314
317
330
318
314
317
318
258
531
414
315
318
326
335
351
371
376
373
348
321
312
312
324
330
321
320
323
325
246
595
409
316
321
327
338
355
369
373
367
336
310
303
305
315
317
307
307
308
310
225
558
364
299
301
306
318
333
347
345
339
302
276
276
276
288
286
279
281
282
285
229
480
321
279
284
291
305
324
339
341
332
301
284
285
287
305
308
305
303
302
306
246
492
350
310
315
315
334
347
363
369
352
326
305
304
309
325
326
317
317
324
319
310
430
364
323
330
340
354
373
383
378
370
339
322
315
317
337
335
322
324
328
332
294
483
386
338
341
349
361
380
391
394
380
348
327
326
332
335
346
336
334
338
339
284
561
439
331
334
340
351
365
384
389
392
364
331
324
325
328
344
338
333
335
338
335
299
519
368
333
337
343
354
372
383
384
375
335
318
316
320
320
332
321
320
320
322
250
600
418
316
322
334
344
360
362
378
377
365
336
327
325
325
337
326
319
317
319
303
387
412
328
312
317
328
339
360
368
366
348
317
301
301
301
321
315
308
311
316
315
277
447
362
314
320
329
343
362
375
377
367
334
315
313
316
322
333
320
320
322
324
264
559
422
319
322
328
339
351
384
378
367
348
315
309
310
311
327
326
318
322
326
324
280
517
359
322
328
334
346
365
379
380
371
335
314
315
319
323
334
322
324
326
328
240
639
409
318
333
324
335
355
369
376
367
345
314
313
317
321
338
330
331
332
332
283
525
445
319
322
327
334
349
367
378
372
355
318
306
304
313
322
313
310
317
314
269
502
414
318
316
327
336
352
370
376
373
350
322
312
315
318
336
329
321
330
330
301
469
430
334
327
332
341
355
373
378
377
356
325
312
313
316
332
327
318
320
323
312
350
458
337
321
322
330
344
363
372
370
355
322
307
311
313
332
323
317
321
324
315
345
462
343
324
327
337
351
369
381
380
364
331
316
318
320
336
327
324
326
328
312
392
460
341
325
330
335
348
364
376
375
353
321
305
306
313
321
311
310
308
318
273
493
410
309
310
319
327
343
363
366
364
341
314
300
306
314
324
315
312
315
315
264
524
417
318
324
331
343
357
377
383
381
359
330
319
324
328
340
331
328
329
331
283
534
433
324
327
332
338
353
372
379
373
354
322
313
314
318
330
322
321
324
325
289
482
438
324
323
328
336
349
367
377
372
354
321
311
313
316
331
326
323
327
330
318
378
462
342
327
332
342
354
372
384
385
365
331
313
313
315
328
323
315
318
315
314
294
435
348
312
317
326
333
351
363
366
354
321
300
301
301
325
315
309
311
313
314
260
478
368
317
320
335
343
365
380
383
372
343
319
318
321
333
340
330
330
336
338
269
594
428
329
336
343
350
369
382
386
382
355
324
316
317
319
332
323
320
323
326
294
471
437
322
319
324
332
347
366
374
374
351
318
307
309
308
325
317
314
316
318
313
328
464
337
316
320
329
341
359
371
370
356
321
304
304
305
324
320
313
317
316
318
231
564
389
304
310
314
323
336
350
348
344
311
278
273
273
281
286
273
271
276
274
214
487
366
264
269
275
287
300
318
322
320
296
270
261
267
278
287
281
279
280
285
252
452
379
296
291
296
312
329
351
361
359
343
312
304
308
312
334
327
320
327
329
329
295
486
371
333
337
345
357
378
391
391
381
348
327
326
328
340
346
337
337
340
343
269
599
435
333
339
347
352
368
388
392
388
364
335
328
331
330
347
340
336
339
344
332
376
461
352
340
341
345
361
376
387
386
373
339
321
318
316
331
333
324
326
330
332
258
533
401
318
323
330
345
359
376
378
367
340
313
310
311
324
331
318
318
324
328
280
535
426
326
329
337
344
361
379
385
379
358
330
319
323
325
343
336
329
331
335
334
287
506
374
332
335
343
354
374
384
385
373
342
321
320
319
330
332
319
321
324
325
259
557
427
318
321
326
336
351
363
370
366
340
305
300
297
306
314
303
301
306
307
278
432
397
310
304
310
319
337
353
362
362
344
311
306
300
308
325
311
308
313
318
311
348
429
345
325
331
341
352
379
389
382
370
337
319
320
321
339
334
323
327
327
330
257
540
384
322
328
330
342
360
376
378
367
335
313
310
311
327
325
319
321
323
326
240
602
399
319
325
331
342
360
375
384
376
349
319
319
316
332
333
323
328
333
333
247
620
408
328
333
341
351
366
381
384
377
347
322
320
318
332
326
324
324
322
328
247
548
381
323
326
333
343
367
376
372
363
341
309
308
315
317
313
307
317
318
312
299
422
343
311
314
323
340
348
364
364
352
328
306
303
315
319
308
308
314
314
274
493
409
314
316
319
328
343
364
366
362
345
317
302
309
311
321
311
312
314
315
244
558
410
309
312
316
325
342
357
361
355
332
307
309
311
325
329
322
324
325
329
242
558
385
320
327
333
347
360
378
381
366
336
312
315
314
333
325
324
326
328
315
381
460
343
332
342
343
357
371
382
381
362
337
309
311
326
325
317
313
309
327
238
557
412
315
309
317
326
349
365
364
359
337
308
302
305
322
321
308
315
319
307
331
435
340
320
325
337
355
374
386
383
365
335
320
323
328
343
331
330
337
335
286
546
435
325
326
334
342
358
377
379
375
354
319
311
313
322
322
314
316
319
320
235
573
379
311
319
323
332
352
368
367
362
329
305
309
310
329
323
317
318
322
284
510
436
323
322
330
342
357
375
384
381
362
330
324
323
336
339
329
329
333
337
255
580
392
323
330
335
347
363
374
373
364
332
314
311
313
329
319
320
323
332
294
499
446
324
332
331
339
352
369
372
369
349
316
309
309
327
320
311
310
316
312
303
426
350
310
317
326
343
358
366
366
354
327
305
305
317
326
313
314
320
323
254
578
415
321
327
332
344
360
374
375
370
343
319
313
316
333
327
321
323
328
327
305
483
357
325
328
335
349
366
375
376
362
330
314
316
320
331
322
322
323
329
253
610
421
322
329
335
346
361
382
384
378
350
323
321
320
337
333
329
329
330
321
361
460
340
322
329
336
347
363
373
372
353
320
307
307
311
322
314
313
316
318
240
587
413
312
317
324
334
351
367
370
366
339
312
305
307
319
322
310
315
317
311
310
419
341
311
316
324
338
356
365
360
354
322
305
304
315
323
313
312
316
318
254
545
412
315
319
324
335
353
371
373
367
343
317
309
314
328
333
321
321
326
329
255
539
392
324
328
335
347
364
378
380
370
339
315
312
314
328
332
322
323
326
325
280
505
362
323
329
338
349
368
381
384
372
334
316
315
318
336
329
321
324
327
317
347
465
339
318
324
330
342
361
369
370
353
322
304
307
304
323
317
312
312
317
307
349
458
332
313
321
327
342
361
372
372
357
325
310
311
310
333
331
325
328
331
323
349
456
349
329
331
341
353
368
384
379
366
333
317
310
318
333
326
320
318
321
313
361
416
336
317
323
329
345
358
370
367
354
325
313
308
312
331
327
319
323
329
330
299
471
371
331
335
344
356
373
388
388
376
344
326
325
326
332
342
331
330
332
337
253
612
417
328
331
336
345
361
377
379
372
340
314
309
312
310
325
318
313
316
316
269
508
426
308
308
317
322
338
356
363
362
341
309
300
305
302
323
317
314
317
319
301
398
447
328
319
328
335
348
366
376
372
363
331
315
319
316
331
331
322
326
326
322
292
459
361
317
322
328
341
360
368
370
356
326
305
302
301
320
315
303
310
313
306
289
428
347
311
314
325
339
355
368
369
357
328
314
312
318
335
339
328
332
334
335
265
543
391
328
331
339
351
371
384
383
374
342
320
317
320
331
335
323
324
327
329
243
615
405
317
323
330
339
356
370
374
368
336
312
307
308
315
323
312
313
314
317
230
607
402
310
315
321
335
348
369
372
365
337
309
305
306
313
325
315
318
322
323
246
593
424
320
326
336
342
359
375
380
375
346
320
313
312
324
326
316
316
322
320
248
545
413
305
307
317
327
341
358
360
357
329
303
297
298
307
317
306
308
310
313
251
539
408
304
309
319
328
347
368
373
369
346
318
309
315
318
338
327
323
328
333
315
427
449
343
334
340
346
360
379
392
390
372
337
324
324
325
339
338
330
332
334
333
254
567
387
324
330
335
345
365
380
382
373
340
315
312
314
319
329
322
324
325
330
257
603
428
318
323
327
336
351
369
378
372
347
316
311
316
316
336
327
323
326
327
310
402
460
336
322
328
333
347
364
376
375
357
322
305
307
308
323
321
314
314
317
315
240
512
378
305
306
314
321
340
353
355
348
319
296
291
289
303
310
301
297
302
306
266
487
404
307
307
308
323
337
358
363
364
343
315
304
305
309
329
324
319
321
324
327
278
487
376
327
332
340
352
372
382
379
369
337
315
314
316
322
332
323
325
325
327
265
571
429
320
320
328
336
353
372
377
377
351
317
311
313
313
331
323
322
323
328
312
387
466
337
323
328
338
353
370
381
379
362
326
312
316
314
333
324
321
325
326
318
332
481
339
316
322
327
340
357
368
367
355
320
302
305
305
322
315
313
317
319
304
375
451
336
319
323
334
345
363
372
371
357
320
307
312
313
324
311
311
314
318
288
446
410
321
316
325
331
340
363
370
365
350
322
303
310
315
326
315
314
312
317
289
460
406
318
310
320
326
345
364
371
367
350
320
309
312
317
334
323
318
325
329
303
441
440
332
323
332
341
354
371
382
379
363
330
318
322
325
345
338
331
333
335
327
362
476
350
328
335
342
353
371
383
384
370
335
318
324
320
336
329
320
324
327
327
269
516
364
319
322
329
340
359
377
375
360
325
304
307
317
321
330
317
321
322
325
251
545
399
313
318
325
334
346
364
362
362
334
311
303
301
314
317
308
305
306
315
248
526
393
301
310
313
329
344
362
364
356
335
307
305
311
316
334
322
319
319
326
304
423
419
336
324
333
339
349
370
382
381
361
329
318
318
321
331
337
326
328
330
334
269
556
419
329
333
340
347
364
381
388
384
364
335
330
320
319
339
333
324
325
329
325
258
516
395
316
324
327
333
350
368
368
355
326
300
294
296
300
317
307
304
305
305
303
320
422
328
305
308
318
332
355
367
369
356
323
308
303
310
314
335
323
321
319
326
316
365
452
342
322
328
338
353
368
387
382
370
335
318
317
322
323
342
333
327
327
331
322
350
467
344
323
327
334
346
364
376
375
360
328
307
310
315
313
332
324
319
323
325
315
368
458
338
322
327
335
347
365
378
379
368
333
315
318
320
321
341
333
329
330
334
315
422
466
345
333
335
345
355
371
385
379
367
333
312
309
309
316
316
311
306
308
313
248
539
404
302
306
314
321
340
354
363
351
331
305
294
299
305
323
310
310
312
317
310
341
435
345
320
326
334
350
369
380
380
368
334
319
321
321
330
339
328
328
329
331
260
597
433
325
329
337
343
358
374
379
376
349
318
311
312
314
328
318
318
317
320
303
406
450
326
316
321
328
341
361
373
368
352
319
307
308
306
325
317
311
313
317
318
266
500
361
321
326
332
345
364
378
378
369
345
324
324
321
334
331
325
325
327
327
259
519
387
315
318
324
335
347
362
366
355
325
300
300
299
316
309
300
299
300
306
240
498
375
301
305
313
327
345
360
363
357
330
307
307
309
324
330
318
321
326
328
258
585
425
327
335
341
350
367
384
392
384
359
331
323
327
333
344
334
330
333
336
299
476
447
331
326
331
337
350
367
375
373
354
320
306
309
310
324
318
311
316
319
313
310
472
342
314
317
324
338
354
367
367
356
325
306
308
305
319
319
312
314
318
323
239
568
390
316
320
327
337
354
371
375
367
338
314
313
311
318
330
322
324
328
328
279
516
435
318
323
324
331
346
364
370
372
350
318
308
306
305
320
314
312
311
313
309
288
426
352
309
314
321
335
351
364
365
352
326
302
302
303
316
323
310
312
318
320
269
541
427
323
329
336
345
359
377
386
379
358
324
315
315
318
333
332
322
324
322
325
242
591
400
318
322
325
336
352
370
373
366
340
311
307
311
311
332
322
317
317
321
317
287
502
349
319
324
330
345
365
375
377
367
334
315
313
318
317
333
328
325
330
332
327
314
492
350
324
330
337
351
367
377
378
367
332
312
312
315
318
332
323
321
327
329
310
410
453
331
322
327
336
346
364
373
372
357
324
308
307
309
316
325
309
312
316
316
259
526
418
310
315
320
333
347
366
375
368
346
318
306
302
308
327
320
311
314
319
314
282
446
360
312
317
323
337
353
370
368
361
329
310
305
312
316
330
320
317
321
325
304
427
436
330
321
330
338
354
370
381
379
362
327
312
313
316
325
331
322
323
326
329
254
605
425
320
324
330
340
356
374
381
375
351
318
311
311
313
333
323
316
319
324
320
272
504
356
315
320
328
339
358
370
371
360
330
307
306
305
317
324
317
318
322
324
254
575
431
318
325
326
336
354
369
376
379
350
320
312
316
319
327
323
318
319
324
307
394
417
336
322
323
332
347
362
376
372
355
321
305
305
301
320
314
306
307
307
310
251
493
374
312
312
324
336
355
371
373
363
333
312
311
316
324
337
328
326
330
332
296
490
442
332
327
333
342
358
377
387
385
367
331
318
323
322
339
336
330
333
333
334
247
602
395
326
329
335
345
361
376
377
368
335
307
306
307
310
322
312
314
315
317
253
570
427
309
311
316
325
340
358
366
362
340
306
300
303
306
320
314
311
314
319
312
321
487
345
321
323
332
344
364
376
378
368
332
312
313
316
331
326
320
322
325
329
240
610
399
318
324
329
338
352
367
372
366
335
309
305
308
315
324
316
316
320
323
260
557
432
318
324
327
338
350
364
372
371
346
320
308
307
315
324
312
315
317
318
281
478
410
315
317
325
336
350
367
370
367
352
322
315
309
323
330
318
315
311
315
276
478
409
316
317
323
335
351
370
375
370
355
323
314
317
321
338
328
323
323
327
321
346
452
348
327
330
338
351
367
376
377
362
330
314
314
316
334
324
320
323
326
326
278
493
366
320
324
333
342
361
375
375
366
331
310
311
317
330
328
320
317
318
319
242
529
385
309
316
320
333
347
363
368
357
326
297
295
297
312
314
305
306
310
313
242
532
399
305
311
321
330
349
365
369
362
336
305
302
305
322
327
317
320
320
327
275
544
430
327
329
336
348
364
381
388
385
360
328
319
321
318
337
326
320
321
324
321
268
510
363
316
320
330
340
358
374
377
367
331
310
309
311
318
327
320
320
323
326
280
524
440
324
326
329
340
354
372
385
382
359
327
315
317
321
334
334
327
328
330
332
255
566
417
321
325
326
336
354
369
376
370
340
309
301
298
301
321
307
301
303
304
302
310
412
334
303
307
312
329
345
358
361
350
318
300
298
299
312
324
312
312
317
321
282
485
421
320
319
324
335
348
370
379
380
357
324
312
313
318
326
333
323
324
328
330
262
578
430
325
328
334
341
356
374
381
378
351
317
310
311
310
330
326
321
325
330
330
255
539
390
325
328
339
347
364
379
386
379
345
316
311
316
314
329
321
318
320
319
310
362
429
338
314
323
327
341
362
375
376
362
328
305
304
306
323
321
311
310
316
321
254
552
418
314
321
328
338
355
375
379
374
348
317
309
312
312
332
326
321
322
323
324
252
537
384
319
326
332
341
359
374
379
370
336
309
305
307
311
328
320
318
320
325
312
388
449
335
325
330
336
349
368
380
385
370
335
314
313
310
322
327
313
314
318
317
255
535
416
308
314
320
330
344
363
369
364
341
312
296
302
303
323
313
307
311
317
317
267
478
370
319
325
333
347
369
380
381
372
339
316
315
317
325
340
330
328
330
333
311
436
448
337
331
334
342
356
374
386
385
366
330
313
316
316
327
325
314
319
320
324
240
576
401
314
318
324
333
353
370
372
368
336
307
303
305
310
323
314
313
317
321
291
455
441
320
320
324
328
347
365
371
373
355
319
313
313
313
328
319
316
316
324
320
297
440
357
316
320
328
339
359
371
374
363
325
304
301
299
320
319
308
309
309
312
243
555
405
311
314
321
334
352
368
374
368
342
316
313
312
315
334
324
321
323
325
320
320
468
352
324
327
334
346
367
383
380
369
335
318
315
317
328
337
329
330
333
332
289
505
442
328
331
333
345
355
371
378
377
357
319
306
305
306
319
318
309
315
315
314
244
511
384
309
314
317
331
348
364
369
362
329
307
300
306
312
326
314
310
311
314
299
412
424
328
320
324
337
352
373
383
386
368
334
320
322
326
332
341
331
331
332
335
280
541
437
324
325
330
340
352
372
383
375
354
318
310
310
309
324
321
316
318
320
324
243
576
412
312
319
322
333
351
369
374
369
346
317
310
313
310
326
321
314
321
323
321
262
490
374
314
319
325
336
353
369
373
362
330
308
302
304
314
323
314
306
310
316
287
450
412
312
306
312
321
338
360
371
371
353
320
308
307
312
329
331
321
324
326
328
260
575
429
321
329
332
343
360
378
385
379
357
326
318
322
319
340
333
328
329
331
333
256
552
402
326
331
338
350
367
383
390
382
351
321
315
317
317
336
322
314
321
324
315
326
439
339
312
320
325
335
358
370
371
355
325
303
300
302
320
321
311
309
314
315
252
551
418
311
317
324
335
350
371
380
377
354
323
314
317
322
339
335
327
329
332
336
257
563
405
329
337
340
349
366
382
384
378
349
318
315
313
317
333
324
322
324
326
322
290
471
356
318
319
329
336
357
368
372
360
333
305
306
306
310
322
311
311
316
317
293
437
419
322
312
319
326
343
363
375
375
359
328
314
314
316
333
335
325
326
328
333
260
572
430
322
322
328
339
353
370
376
370
347
313
307
310
310
328
322
315
319
321
322
244
541
387
315
322
328
338
355
372
377
374
344
321
311
315
319
329
319
317
322
321
316
359
433
340
315
322
329
340
363
373
371
363
327
310
304
309
320
326
312
316
316
320
266
537
421
316
316
323
331
347
362
371
366
351
316
309
311
310
329
325
319
318
324
327
247
563
398
320
323
330
343
359
375
377
372
347
317
312
316
319
334
326
322
331
329
323
335
462
349
326
330
337
347
365
382
381
373
336
315
311
310
324
326
316
314
315
321
260
536
419
309
315
320
326
344
358
364
358
338
310
293
297
302
323
314
307
312
317
320
268
482
374
317
326
331
343
359
374
377
371
340
316
317
316
326
338
328
327
329
334
308
443
445
336
328
333
339
353
371
381
381
366
333
316
318
320
330
335
323
324
325
325
251
558
423
314
314
321
331
344
359
368
361
335
305
301
299
301
318
308
302
305
310
306
295
437
343
307
312
321
331
354
366
367
357
325
306
304
310
323
330
322
322
327
331
286
527
442
327
329
335
343
357
374
384
381
360
325
314
312
312
327
327
320
321
324
325
250
566
416
316
327
329
338
