383
362
337
338
335
348
354
355
359
354
357
367
351
351
316
578
399
372
365
380
380
390
401
420
429
430
433
373
353
356
348
364
345
363
372
361
363
373
360
367
347
487
401
381
364
379
372
391
401
422
423
429
422
385
360
355
346
353
355
348
357
379
363
356
352
365
357
319
531
405
357
376
362
372
369
388
414
427
419
398
356
336
330
345
345
345
335
344
366
352
351
339
359
360
311
542
405
350
374
370
371
386
405
419
438
432
416
370
351
357
349
350
356
367
367
389
365
358
373
371
368
338
525
420
363
378
380
389
401
423
426
434
443
412
371
363
366
348
360
367
363
380
380
367
365
371
372
353
441
414
374
370
373
378
384
391
405
418
432
421
386
353
346
335
338
341
336
345
361
353
348
345
347
346
349
405
392
368
354
356
364
378
397
405
416
422
418
390
355
342
336
341
346
358
368
369
371
348
344
362
365
322
585
419
367
368
376
380
392
404
418
437
439
408
366
365
331
343
339
336
348
346
358
349
347
350
341
359
329
548
420
359
361
369
367
382
402
405
412
421
400
364
345
341
337
337
357
362
363
356
355
354
354
365
332
541
413
370
361
378
370
386
391
413
424
437
424
378
355
346
345
341
347
353
358
371
354
359
364
361
346
434
431
387
369
372
373
380
398
410
433
423
428
394
361
352
353
353
355
361
355
366
389
361
361
378
371
368
392
435
404
368
369
377
378
380
403
415
418
414
396
365
348
357
342
347
342
386
360
353
366
365
363
306
584
417
368
382
363
380
390
399
416
432
439
419
390
365
353
359
344
352
362
355
358
351
348
350
339
428
389
369
363
360
373
378
397
396
423
420
417
390
367
344
345
359
361
377
369
361
358
358
366
361
389
415
394
379
380
384
390
387
411
418
428
416
389
364
352
374
348
346
362
385
373
363
358
352
367
323
506
401
370
379
370
374
391
401
426
420
426
402
363
356
345
346
356
347
366
365
357
352
362
357
345
515
389
364
361
369
370
379
387
410
433
417
407
380
347
340
343
341
349
351
348
366
354
344
353
352
309
527
397
356
358
369
371
394
394
421
422
417
401
349
350
347
336
351
365
362
366
355
358
355
377
309
545
416
363
365
385
373
388
396
404
428
429
411
374
355
360
340
355
350
352
366
361
357
359
377
365
378
311
558
392
381
365
370
372
385
409
413
423
434
421
374
360
343
349
345
342
357
361
367
352
351
358
364
335
442
404
377
366
370
373
393
396
412
420
436
420
389
356
342
340
347
356
353
391
365
358
374
358
367
340
519
399
371
362
376
369
383
396
410
429
431
422
371
356
343
344
344
352
356
358
364
384
374
370
363
365
371
327
537
405
369
368
371
383
386
403
429
417
434
394
366
348
341
334
343
339
348
350
353
362
350
348
354
352
356
315
543
398
366
361
364
380
392
403
419
436
434
414
369
353
344
348
346
358
352
358
367
382
364
365
364
376
363
407
430
396
376
368
384
385
398
418
432
439
432
400
371
354
354
352
356
362
362
363
378
366
379
381
376
375
374
363
477
422
389
372
371
371
376
387
409
415
418
424
380
348
335
325
336
343
326
344
319
347
350
338
342
346
348
327
456
369
354
345
366
355
371
383
404
406
425
402
387
350
342
343
348
351
357
356
375
372
368
365
368
369
359
473
411
382
378
376
387
394
396
425
426
435
429
388
359
355
354
357
374
371
362
368
366
374
376
371
370
377
373
295
541
406
354
375
377
399
381
409
420
420
417
407
362
339
335
333
341
340
355
358
364
341
340
346
357
347
396
409
374
352
362
376
375
398
403
425
429
428
398
357
346
340
342
358
352
363
377
362
354
369
361
378
334
507
410
367
378
378
391
395
411
429
435
427
409
361
350
352
358
355
360
369
368
375
377
371
370
369
369
364
412
423
384
363
363
370
379
376
395
407
424
407
382
354
322
330
349
337
324
354
352
361
334
340
348
353
352
344
432
384
364
356
376
389
388
407
421
428
428
403
366
353
339
343
355
355
362
368
367
362
364
362
367
336
528
415
372
365
374
366
380
393
407
424
429
421
394
372
350
358
352
355
364
366
355
362
357
363
357
359
367
343
478
396
369
348
365
362
375
384
401
412
427
417
383
354
358
324
337
333
346
353
345
373
355
344
358
361
360
309
571
417
373
370
379
384
391
406
423
424
432
416
374
359
349
357
350
360
361
357
385
359
364
371
368
365
323
579
426
373
373
379
388
393
405
424
431
442
421
381
352
350
359
356
355
361
357
369
368
361
378
367
369
371
368
370
350
487
409
375
385
380
393
395
413
423
430
428
413
374
344
345
349
357
355
358
353
347
365
368
353
354
365
354
351
438
407
377
357
375
377
380
387
399
421
428
422
391
359
342
337
340
347
356
353
349
367
344
361
363
359
369
317
569
422
374
376
389
376
403
396
417
427
436
412
388
358
346
343
341
363
351
359
361
366
362
360
365
362
366
314
570
400
367
371
380
381
377
400
418
420
428
412
372
344
345
338
344
355
344
356
351
358
364
370
362
355
356
359
356
376
424
391
369
361
377
372
386
406
416
427
420
395
360
342
337
347
353
343
351
352
368
369
364
361
363
373
348
476
407
389
368
379
378
390
397
412
431
443
420
388
367
338
341
353
357
354
357
367
352
356
372
378
366
363
370
366
322
575
413
369
372
378
376
391
399
415
433
428
414
390
357
350
360
340
354
356
365
355
372
365
376
364
371
371
369
352
488
420
410
355
365
381
389
392
408
411
424
419
394
350
342
338
341
343
348
346
348
358
356
365
354
363
363
352
360
323
524
396
370
361
384
372
388
401
423
426
426
409
377
346
345
356
349
353
353
362
363
356
368
380
356
368
373
374
377
353
491
412
363
375
385
380
394
399
424
432
431
418
374
354
350
348
347
357
360
356
362
364
370
373
362
365
365
369
329
542
416
372
373
373
375
389
394
410
426
425
421
390
357
346
339
345
345
358
347
359
365
364
371
364
363
365
359
362
325
503
402
366
357
364
374
384
392
416
428
422
403
369
346
332
333
347
340
350
354
354
360
353
356
347
364
363
318
570
414
365
377
366
373
388
392
408
431
428
407
384
356
347
348
353
350
357
365
359
364
373
367
367
360
367
348
476
413
384
371
367
376
384
388
406
432
421
424
386
361
341
351
343
350
344
357
345
362
350
371
362
360
365
364
366
345
467
403
366
368
366
375
395
403
417
432
422
412
361
348
341
347
335
349
352
341
362
368
346
355
355
354
360
386
429
390
366
371
374
385
393
407
426
433
432
398
362
355
339
348
358
355
355
371
367
367
367
371
358
371
316
580
418
374
365
377
371
387
405
425
435
441
419
390
350
352
355
348
345
350
357
364
363
358
361
358
372
353
418
411
392
378
376
359
378
387
397
413
431
419
397
347
345
332
330
335
350
343
348
365
362
355
350
357
365
301
557
406
361
369
375
376
385
408
423
440
428
414
379
355
342
344
356
358
356
366
391
368
362
371
371
367
324
577
413
371
363
380
383
377
397
411
422
421
415
378
351
336
346
339
340
340
353
351
364
353
352
354
356
349
307
529
391
349
364
359
372
376
389
410
424
428
403
377
341
346
347
353
353
372
360
380
371
361
367
374
373
316
580
420
368
368
383
384
392
406
419
443
433
432
381
359
357
348
356
358
361
357
364
366
365
364
356
362
361
357
398
421
386
363
369
367
368
385
397
411
422
415
399
357
342
335
339
328
344
343
357
360
368
352
344
356
354
366
444
397
362
366
375
385
395
410
426
432
423
402
364
351
350
344
352
360
366
364
375
366
365
361
371
368
324
558
408
374
373
383
384
397
407
423
432
448
413
367
358
361
341
347
350
359
361
389
366
369
381
376
377
324
543
420
368
377
376
383
388
401
412
424
429
404
362
349
336
340
345
342
342
352
369
354
353
351
350
358
303
554
385
360
357
366
366
388
392
411
422
434
413
367
349
347
349
340
335
362
362
353
374
360
359
368
353
446
399
381
373
371
368
383
401
413
420
435
422
385
362
351
346
348
345
356
364
370
361
366
363
368
364
354
523
416
383
366
379
390
377
396
409
414
434
422
378
352
347
343
339
347
343
352
362
359
352
351
362
357
306
559
400
366
359
375
371
387
393
409
420
422
395
369
356
333
348
339
358
350
362
365
349
351
357
363
319
576
402
370
364
369
376
384
412
416
421
423
408
368
352
347
342
343
361
358
358
354
354
358
361
363
316
566
400
362
362
366
373
381
389
418
417
430
413
378
367
340
342
356
346
343
351
369
368
353
357
367
362
359
324
508
396
372
362
375
371
395
396
417
425
423
404
363
353
347
342
347
353
356
367
359
350
359
363
369
321
538
407
370
369
380
380
391
399
420
429
436
413
382
354
349
350
347
354
366
372
373
355
369
360
366
355
461
410
376
368
376
387
392
397
420
432
429
426
393
360
346
347
362
343
351
357
353
377
362
362
363
367
359
311
567
412
363
365
362
378
380
405
402
414
424
406
372
349
346
339
346
356
362
369
365
357
360
357
354
345
493
410
374
371
373
389
380
404
415
435
435
430
386
356
341
347
355
342
350
364
374
355
367
352
367
362
322
569
408
366
366
376
378
382
390
421
433
423
403
378
337
339
341
344
347
346
347
354
363
340
360
357
345
331
524
394
369
373
368
378
377
381
411
420
421
413
375
347
340
333
340
349
362
364
373
363
359
369
371
368
330
496
411
374
371
373
377
395
414
424
439
422
404
361
355
336
346
344
358
357
363
362
353
350
365
356
324
544
404
361
361
370
364
373
396
404
426
428
409
387
354
346
350
343
352
355
357
357
365
366
358
358
361
364
315
555
415
363
373
368
354
387
388
403
417
423
417
377
352
334
340
341
342
339
344
352
365
347
345
360
365
365
328
513
406
381
368
369
382
393
404
423
435
427
412
365
358
339
353
352
354
370
362
380
368
361
372
363
374
337
550
405
373
390
369
388
389
403
416
439
445
430
389
364
355
354
346
345
358
359
364
365
369
359
359
357
369
359
357
451
391
362
369
369
379
388
397
425
416
430
394
352
360
353
324
340
335
345
342
361
366
361
359
371
379
303
568
420
365
390
357
361
380
399
412
427
434
439
374
369
344
358
381
340
350
358
364
360
366
360
365
365
372
358
387
450
393
371
373
379
395
397
412
431
433
447
425
373
352
360
347
351
353
359
350
372
361
362
357
367
354
316
541
411
359
368
373
381
386
391
417
422
432
396
370
347
334
338
336
347
348
345
364
358
348
354
355
361
310
575
416
369
368
381
369
393
406
426
421
436
410
378
354
346
346
347
360
355
369
368
370
360
357
376
357
315
570
415
371
375
381
381
392
404
423
434
429
413
372
360
352
362
341
364
373
350
376
358
349
360
360
369
306
516
395
359
363
362
371
377
394
417
421
427
393
368
338
340
332
336
352
348
357
368
349
357
352
338
332
492
384
369
360
364
376
379
393
415
425
431
423
388
361
356
340
348
360
357
377
372
361
369
367
363
366
356
465
394
369
374
377
381
392
411
429
431
434
401
356
352
343
346
365
350
359
368
370
369
365
356
369
368
317
547
411
362
369
372
377
378
394
419
428
427
401
366
345
329
341
348
354
341
349
359
353
342
351
357
349
311
562
380
362
359
363
368
384
390
420
429
429
414
381
351
345
347
352
354
362
366
371
373
367
361
365
367
340
509
403
380
375
384
370
393
394
415
431
439
435
405
366
357
353
352
357
354
363
353
368
359
348
351
353
346
344
454
373
355
360
363
375
384
393
418
418
418
403
352
342
342
340
338
354
345
363
356
362
359
359
355
366
334
539
419
380
365
380
370
390
388
421
421
432
428
387
362
356
354
343
359
357
374
378
363
360
359
363
364
330
508
389
359
374
358
373
383
399
423
418
428
391
361
350
327
342
340
351
351
353
357
355
346
346
348
331
496
392
354
360
361
377
376
402
402
417
432
411
385
351
346
337
345
359
360
361
379
361
365
372
368
371
402
441
401
385
369
388
379
388
421
429
418
430
417
361
358
355
364
352
367
361
356
370
361
361
358
369
338
512
406
377
365
372
374
382
393
412
425
414
416
389
341
343
330
332
340
360
372
348
348
345
358
349
343
412
416
384
358
379
365
383
387
418
423
432
420
393
358
352
340
346
355
361
373
373
363
361
372
353
362
359
473
396
371
374
378
388
397
410
432
437
433
408
377
350
360
346
356
354
357
360
385
354
356
365
374
366
309
560
400
367
367
369
372
378
393
416
419
422
397
366
343
331
343
339
351
354
370
366
349
349
365
359
326
510
411
349
378
371
386
401
409
428
439
426
407
375
354
348
359
359
357
375
379
349
366
369
375
353
460
413
385
366
374
372
382
394
412
437
439
431
390
361
351
340
347
348
352
358
352
354
350
353
351
318
541
397
351
358
364
367
373
396
407
419
424
405
371
353
337
345
336
356
351
364
349
353
342
360
356
320
492
384
355
366
376
380
390
404
431
422
421
407
369
354
346
348
356
363
370
371
358
365
371
362
324
565
412
369
371
378
380
392
396
423
429
438
421
378
364
354
350
345
356
358
370
351
355
353
353
362
308
564
389
358
358
370
360
377
396
408
420
422
405
365
347
332
341
331
341
348
349
356
351
345
348
354
349
383
413
380
358
366
373
382
399
416
426
429
428
402
373
347
349
356
361
359
365
385
382
370
372
369
379
356
463
414
386
372
382
376
399
394
415
434
446
438
395
377
361
355
353
351
361
356
373
351
351
356
359
358
345
451
397
354
364
351
379
386
398
417
419
419
388
362
335
335
327
337
342
354
360
344
345
360
343
385
291
540
394
369
370
353
378
384
408
420
434
426
408
368
353
350
340
352
351
354
366
367
370
358
365
366
369
342
492
407
371
373
380
393
389
408
432
431
433
411
374
362
354
361
361
354
373
366
363
362
358
368
367
337
492
384
380
355
365
375
379
385
402
417
422
410
381
368
323
324
336
340
346
356
355
348
354
343
349
329
512
374
370
361
363
381
384
395
418
435
435
414
397
345
351
353
357
371
379
377
366
346
365
367
366
318
565
414
373
370
384
389
401
413
422
432
445
407
379
348
343
360
355
361
376
368
354
364
362
359
312
569
382
355
353
359
368
377
380
415
421
418
399
363
341
340
349
354
358
366
353
354
358
359
356
310
574
404
374
370
366
388
393
404
431
430
421
406
367
348
347
349
358
364
370
355
349
354
358
358
307
601
412
365
370
377
389
390
387
418
423
432
407
370
348
330
340
336
345
349
341
347
353
344
357
309
542
407
361
370
368
369
397
393
399
421
411
393
363
336
329
331
349
354
342
338
346
341
346
333
445
370
371
362
354
359
369
383
400
412
424
404
377
336
338
329
350
353
360
353
350
352
351
357
317
546
406
367
377
376
388
393
409
428
439
437
407
367
350
354
346
362
374
383
360
365
366
367
377
341
490
406
368
376
380
388
390
417
430
441
428
399
371
350
345
357
354
355
363
376
359
361
359
374
350
394
414
388
353
359
369
377
386
403
420
429
423
377
361
335
335
333
335
344
351
349
344
351
339
349
352
330
469
386
364
362
366
380
392
413
429
436
424
396
368
348
352
348
356
359
360
374
368
371
367
367
372
308
586
420
370
373
373
388
399
414
422
438
431
420
373
351
347
345
356
358
357
356
366
371
373
360
365
378
365
321
553
404
367
369
374
384
381
389
424
431
421
397
370
334
341
336
335
349
348
346
344
351
362
353
353
350
357
354
360
434
389
365
357
372
390
391
403
419
430
423
394
361
345
344
342
358
360
354
358
368
370
363
369
361
379
337
566
409
383
375
387
387
391
400
428
434
433
426
388
357
342
351
348
352
352
362
361
369
376
359
373
369
376
322
555
415
372
374
375
388
379
401
424
438
421
414
367
348
344
331
338
353
331
341
359
350
351
351
359
343
319
543
384
362
356
368
366
387
388
415
421
431
415
386
351
339
347
345
356
352
356
371
371
352
364
369
375
318
559
419
377
374
374
396
387
419
432
437
435
412
375
366
348
351
368
364
375
372
379
366
366
362
378
360
450
428
384
368
374
370
380
385
409
419
430
417
388
348
337
335
337
332
344
345
362
339
345
349
348
350
342
434
379
345
352
362
372
373
401
416
417
413
397
354
335
340
333
349
350
361
364
367
360
352
360
370
318
563
411
368
374
376
379
392
413
423
433
429
408
370
348
343
351
350
353
363
368
370
363
361
367
364
318
581
418
371
366
378
378
393
405
440
441
437
417
385
356
344
350
342
354
350
356
358
343
352
344
355
305
549
393
361
363
364
361
381
400
411
411
415
397
357
334
328
333
335
347
356
361
345
361
353
361
320
567
405
372
378
371
384
397
424
423
437
431
420
381
363
356
357
364
368
379
375
365
366
369
365
350
492
408
370
382
387
383
403
420
430
440
440
398
369
360
352
350
360
361
376
364
371
361
364
369
327
572
411
362
370
370
377
386
397
425
425
424
411
369
349
335
333
342
351
349
356
347
349
344
352
324
497
375
362
358
356
373
378
396
405
425
429
405
377
352
334
339
347
354
368
359
361
352
356
367
329
537
398
370
368
374
384
396
406
422
432
439
420
379
355
346
356
353
354
364
374
360
362
357
363
374
320
564
405
366
371
382
384
394
406
427
441
432
411
381
349
344
350
351
342
358
361
358
354
348
345
353
334
495
375
365
354
357
356
368
382
403
411
416
419
359
344
324
328
324
343
351
352
337
353
345
351
325
522
390
361
373
376
381
383
398
424
438
433
426
377
359
356
355
347
362
382
376
365
364
370
377
350
486
403
386
370
377
381
380
404
412
431
440
430
387
362
358
347
352
356
365
373
366
362
356
355
358
311
554
391
362
358
364
363
387
396
416
420
421
398
360
344
331
337
332
352
350
369
352
353
358
360
364
344
479
392
365
375
378
387
401
421
434
442
436
394
373
362
347
348
360
369
370
376
373
364
365
373
370
344
506
404
381
373
384
386
404
408
430
437
426
406
364
361
331
342
343
351
361
358
348
347
350
347
346
338
450
380
350
355
369
370
387
397
417
417
427
395
348
332
328
333
332
342
356
359
347
350
355
363
316
550
388
368
366
372
379
393
399
420
431
434
416
380
343
346
349
347
354
371
370
360
356
367
365
366
334
520
414
366
363
361
384
374
414
440
436
423
405
353
343
339
338
343
338
346
370
340
337
361
340
334
376
404
365
337
355
356
372
372
394
409
415
410
366
338
328
323
331
338
356
364
353
348
357
359
345
370
442
391
367
386
373
379
402
420
436
431
434
395
364
356
353
358
372
399
377
361
370
369
369
334
556
407
383
378
382
379
392
396
421
434
439
419
380
359
354
350
354
362
367
361
347
363
349
354
314
562
387
350
359
359
361
377
389
408
425
421
391
356
336
327
337
331
341
355
341
353
337
354
350
320
503
388
361
363
370
379
395
413
419
433
420
400
362
348
354
349
360
367
375
371
364
360
361
357
388
440
397
381
371
383
391
406
422
432
445
437
399
371
352
366
354
367
361
370
376
361
364
363
361
321
578
402
368
368
362
370
391
391
413
427
439
402
367
349
336
338
337
340
349
346
359
332
352
339
356
299
564
392
355
361
369
369
390
406
411
428
430
410
374
343
339
348
351
344
372
362
366
361
360
363
333
561
408
365
375
374
384
387
406
418
426
436
418
376
358
348
348
351
353
363
373
362
360
358
367
369
318
586
409
369
368
372
379
379
401
412
426
430
407
366
342
332
341
336
339
339
363
347
341
338
349
348
305
513
383
359
345
353
367
386
395
430
412
420
397
357
347
335
346
346
354
368
368
361
364
361
373
362
313
562
413
375
364
368
380
393
406
425
435
438
405
373
369
331
346
352
361
349
369
369
353
360
365
367
333
529
389
371
361
365
366
381
392
412
422
436
416
374
341
346
338
344
340
353
355
369
354
361
356
363
369
318
533
395
369
368
375
389
395
403
431
438
441
400
367
367
342
350
370
350
367
378
368
370
374
364
372
339
564
403
386
382
388
394
398
403
431
433
431
414
368
362
338
351
345
343
307
339
344
370
334
351
358
352
305
555
393
365
339
358
356
378
393
410
419
423
396
372
345
340
336
357
355
355
359
376
380
364
379
375
365
446
412
400
379
384
384
393
406
423
443
448
426
413
378
357
364
364
360
367
368
379
362
369
357
354
362
362
445
384
359
356
362
378
373
390
412
421
404
385
350
332
321
333
335
339
345
352
341
345
342
344
312
564
386
371
365
370
369
384
407
434
420
434
418
387
363
347
355
354
359
370
373
375
361
371
376
362
343
505
414
368
382
373
396
393
414
433
439
443
412
378
357
349
353
352
358
348
353
365
360
362
356
359
333
496
385
362
358
359
361
372
383
404
417
417
404
375
340
329
326
326
345
338
352
354
338
354
355
362
314
517
404
369
376
382
379
402
409
436
427
431
400
369
360
347
347
359
363
375
376
367
372
363
369
324
573
402
379
375
373
383
388
408
422
427
444
414
385
356
348
345
347
355
344
368
353
347
352
350
353
298
557
388
353
361
367
359
372
390
399
407
415
395
364
339
326
332
344
351
364
359
355
354
364
369
348
451
400
383
372
381
388
393
407
425
438
439
424
407
351
358
349
359
362
369
385
370
367
372
381
358
427
419
391
365
376
371
376
390
405
420
426
417
382
350
338
346
324
346
349
361
342
346
352
352
354
361
409
371
352
353
369
372
385
411
413
427
421
391
353
347
347
350
348
365
376
356
354
357
361
359
332
500
403
367
373
377
386
406
404
426
428
420
402
362
364
343
353
349
357
364
380
366
365
374
360
380
349
496
409
370
382
371
384
385
402
426
424
420
390
359
334
337
333
345
355
351
344
350
341
350
339
379
399
374
348
365
352
376
371
403
418
420
405
386
353
335
343
346
359
374
366
359
362
364
360
321
581
409
369
374
388
381
403
414
423
441
432
406
377
358
357
349
356
375
373
357
365
371
375
346
446
407
392
371
370
379
384
392
418
414
419
412
371
354
335
331
334
334
354
342
341
339
339
342
300
554
375
345
350
359
358
374
385
397
405
407
395
355
334
336
335
350
366
363
352
361
366
366
342
511
388
380
384
382
385
399
410
424
442
438
425
389
359
355
356
366
377
372
370
371
364
380
334
573
424
372
373
385
381
378
399
417
426
422
393
358
339
334
326
333
350
348
347
337
336
353
321
495
368
355
351
351
361
369
398
401
417
412
406
365
348
335
350
352
369
364
352
358
360
364
321
549
405
372
371
383
388
399
419
429
439
437
399
370
355
349
353
361
371
380
369
373
365
381
352
426
419
397
378
370
381
390
398
411
437
440
424
388
354
350
347
337
338
353
360
338
346
347
344
312
541
372
356
359
346
361
379
368
400
409
413
391
363
330
322
328
331
344
357
344
349
349
360
343
452
391
367
369
370
374
386
402
417
426
439
424
382
363
349
351
355
363
366
373
363
367
371
370
342
490
393
383
366
381
380
394
392
416
423
437
425
393
364
346
346
347
350
343
362
361
358
355
357
353
313
580
412
360
373
381
376
383
398
421
422
433
412
377
354
343
346
354
364
370
367
368
364
375
376
341
564
407
381
385
381
384
402
401
431
436
447
436
394
376
366
362
362
372
381
359
362
354
362
335
491
372
369
372
366
370
373
389
406
405
416
398
374
335
342
326
342
343
354
350
352
356
355
352
305
549
402
364
360
365
378
386
392
410
417
421
401
358
343
348
340
348
351
363
357
357
357
363
359
369
432
386
362
370
373
386
383
403
422
431
422
403
379
353
354
359
365
374
360
359
352
358
332
514
389
362
361
367
370
380
388
403
421
418
403
372
356
332
343
344
358
361
347
344
342
346
309
544
379
352
353
367
360
370
384
405
409
412
412
368
350
341
348
345
371
362
355
358
355
359
313
546
400
366
371
381
382
391
400
417
419
422
393
371
357
352
354
365
386
395
364
368
364
372
316
577
405
372
354
367
365
382
386
401
405
408
397
361
336
334
328
339
340
353
345
336
339
339
330
463
360
369
348
346
363
372
385
392
400
409
399
381
357
347
355
358
357
375
365
372
369
369
359
463
409
394
380
385
390
402
401
426
437
431
420
400
370
368
368
364
384
386
386
372
378
380
380
346
517
406
378
378
379
388
388
411
408
424
407
391
363
349
345
345
342
344
370
347
339
350
347
326
490
373
358
349
357
367
381
391
399
409
413
400
377
363
355
354
359
368
378
373
366
369
370
372
332
523
419
386
384
392
397
406
413
436
432
436
408
380
367
354
366
357
359
361
367
353
353
352
352
313
549
388
365
357
356
359
373
388
405
398
398
387
363
335
343
332
336
358
358
358
351
345
352
368
312
534
402
367
371
380
390
397
405
427
419
426
402
379
363
357
360
366
369
379
374
370
365
374
375
341
505
406
377
368
383
378
405
406
426
427
417
404
379
371
347
357
363
349
367
367
357
356
358
362
333
502
381
360
360
363
366
379
383
405
405
405
392
370
343
332
340
342
340
348
360
347
348
349
354
354
386
406
384
367
366
377
390
388
406
413
415
405
390
365
351
346
359
361
361
374
370
356
360
367
371
323
533
406
375
370
379
390
392
410
414
423
418
403
377
353
352
354
356
353
363
366
359
366
369
364
318
587
406
374
373
374
384
390
404
418
421
420
415
376
365
358
356
368
366
366
377
384
366
369
361
372
352
438
404
375
360
364
367
375
381
399
409
406
392
373
347
335
330
343
330
336
350
348
335
340
357
346
295
541
389
353
361
366
372
378
385
408
403
397
385
361
346
349
350
364
366
373
377
359
375
376
367
332
572
404
373
372
379
381
388
402
419
422
416
410
373
358
353
351
351
362
358
370
368
355
365
364
374
360
442
407
373
375
377
387
386
406
413
409
408
382
354
339
337
339
345
336
350
350
353
345
341
351
349
317
449
386
357
354
358
366
370
392
407
405
398
382
358
348
340
339
360
356
374
370
353
366
359
367
319
583
401
370
377
377
386
390
410
427
427
425
406
386
356
358
362
351
359
354
381
378
356
363
377
358
336
548
405
377
376
383
386
390
408
420
420
423
422
387
359
344
352
353
356
344
353
363
362
345
355
358
356
297
533
391
348
365
359
366
380
388
408
408
407
382
353
336
323
339
341
348
353
361
351
354
354
360
360
404
417
396
372
373
388
392
412
418
429
428
425
400
376
364
360
364
369
362
374
384
368
373
370
378
359
444
419
393
376
385
382
385
411
424
438
434
422
399
367
355
339
349
340
332
357
354
351
336
352
346
343
296
507
384
355
336
334
360
374
391
404
414
391
372
347
333
328
348
337
342
352
367
344
355
357
366
350
455
419
375
370
376
380
400
412
416
441
424
423
389
365
362
364
354
368
367
385
371
373
373
379
387
323
565
416
375
368
378
373
390
401
418
421
414
392
351
342
339
333
332
346
356
358
352
333
349
356
315
528
381
358
353
365
367
375
390
410
417
411
402
374
350
348
345
360
365
380
362
365
363
359
370
344
553
408
382
376
382
386
401
408
427
437
428
419
378
357
351
350
358
365
372
367
365
361
364
367
343
517
409
377
374
375
380
383
398
411
420
416
390
371
342
330
337
332
342
343
351
342
335
338
347
345
296
561
382
344
347
357
360
375
392
413
408
406
396
367
347
346
342
364
355
373
370
361
357
366
363
345
523
389
381
371
372
375
390
402
417
424
423
409
378
357
352
359
357
358
370
376
365
370
374
369
370
350
485
407
373
383
388
392
410
412
427
424
416
393
370
346
346
350
346
352
357
362
357
349
353
358
358
333
462
386
358
359
369
366
392
399
410
410
406
378
354
334
339
341
338
348
362
367
349
350
354
354
329
545
389
373
369
371
382
401
398
421
434
424
407
376
361
351
352
354
355
363
374
365
362
368
367
368
318
579
401
369
375
378
383
396
417
421
422
424
406
371
353
346
351
352
353
362
366
366
355
359
365
362
327
539
404
367
363
375
383
387
403
414
426
419
400
383
351
348
352
360
338
355
361
372
346
353
355
361
353
389
416
374
355
364
369
378
398
408
413
423
411
385
355
344
346
352
357
353
364
375
368
361
365
364
368
327
545
403
374
375
386
385
397
415
427
428
424
404
378
355
349
354
364
352
368
376
379
370
361
366
363
340
520
400
379
369
379
384
394
404
420
427
432
419
387
371
351
351
356
354
350
362
368
351
348
345
352
340
474
372
357
350
352
361
381
388
402
408
400
395
363
337
326
323
324
333
345
347
349
333
350
339
351
309
562
396
358
366
368
370
391
411
415
422
414
400
372
351
351
352
360
371
368
381
368
363
369
378
371
335
531
423
374
382
391
393
404
430
436
440
427
401
369
352
350
348
353
344
352
363
351
345
338
347
342
319
476
366
356
348
357
354
370
381
404
409
407
400
359
332
332
332
332
342
346
357
343
343
351
358
357
337
521
395
379
376
385
389
396
405
428
436
432
424
390
363
360
362
357
368
367
376
376
374
363
363
367
351
497
405
389
369
377
386
402
398
423
438
436
426
402
360
363
349
363
360
354
362
354
366
350
351
352
344
412
387
383
344
354
378
364
388
407
413
406
408
372
343
328
335
337
336
344
360
353
341
347
362
358
307
586
407
371
365
376
388
396
414
428
424
426
401
378
347
366
352
358
364
375
378
360
370
374
366
372
380
447
402
366
379
385
396
398
428
438
443
417
401
371
358
352
348
347
364
363
368
360
349
353
360
344
415
381
373
353
363
371
362
385
405
420
408
404
363
345
326
341
331
341
336
355
355
347
352
357
358
312
574
398
358
375
364
380
391
405
422
433
428
414
381
356
352
360
361
364
379
387
372
369
380
366
385
351
540
416
383
381
383
375
404
411
398
431
421
384
352
341
326
328
336
337
345
349
338
335
340
347
334
370
404
365
346
346
358
368
382
401
418
407
399
381
349
342
339
347
351
357
361
372
358
365
362
364
344
484
410
379
373
381
378
393
406
428
437
429
424
395
356
353
350
352
362
365
359
379
374
359
371
371
371
342
490
400
370
367
370
378
388
393
412
420
412
381
348
332
337
327
335
336
337
342
342
341
336
337
344
292
536
370
347
346
350
369
373
387
417
422
416
403
362
348
342
343
349
362
362
374
369
359
369
371
375
323
544
414
371
385
386
390
406
427
439
437
434
414
372
358
363
356
358
365
375
372
362
367
366
369
364
381
437
410
371
382
381
397
408
423
436
442
432
390
362
352
342
342
345
336
347
357
356
338
345
351
349
305
541
383
351
355
356
364
371
386
402
416
414
388
364
332
330
323
329
334
348
354
352
340
347
352
352
301
581
397
355
373
375
384
390
417
430
440
431
407
392
353
347
360
361
365
377
381
364
371
361
375
370
323
556
414
378
386
380
392
394
411
429
438
438
400
368
355
345
344
356
357
349
355
365
351
348
357
359
361
341
455
379
353
355
369
372
384
403
423
412
407
377
349
340
333
334
343
339
350
361
364
353
359
361
358
348
433
397
381
375
369
380
390
397
421
438
431
416
393
361
352
358
350
357
355
363
373
378
368
369
370
387
375
412
426
400
387
377
381
384
399
414
418
423
416
389
348
341
325
343
337
340
355
350
348
352
346
336
355
310
515
380
355
351
368
365
380
393
412
416
411
386
351
333
334
333
342
349
353
373
363
354
359
363
369
349
497
392
383
384
376
383
399
412
428
445
447
428
389
360
364
351
362
363
370
370
389
371
366
371
379
372
322
579
417
377
380
381
397
401
420
433
434
426
404
370
348
337
341
342
338
345
342
350
336
326
338
324
339
305
476
372
342
342
358
365
382
402
421
421
416
384
358
344
341
343
353
357
366
374
374
364
367
369
373
353
531
398
384
370
382
383
396
409
430
440
443
420
388
363
352
355
347
358
358
363
374
369
378
370
367
368
374
359
472
401
389
377
381
384
389
407
426
438
442
428
398
368
349
346
347
352
352
351
356
367
350
350
350
352
354
309
545
374
348
353
359
364
378
391
408
411
410
384
348
329
325
329
334
341
338
344
363
345
345
348
353
353
316
551
390
365
371
380
388
400
419
432
436
432
412
375
357
356
358
360
368
369
373
384
369
367
370
371
371
363
475
399
379
382
387
393
407
425
439
442
435
406
371
358
356
359
359
364
365
375
385
373
372
370
370
373
354
501
400
371
374
375
384
393
410
424
419
412
382
351
339
328
333
331
335
336
345
359
343
346
348
348
344
424
385
375
366
367
371
385
389
416
420
421
418
384
354
345
344
349
342
346
361
368
364
362
353
363
366
314
574
409
365
367
376
381
394
406
425
435
436
415
379
366
350
357
357
362
373
374
365
357
366
369
349
481
376
371
355
365
366
382
390
408
418
421
397
367
342
329
324
330
344
350
350
339
349
334
346
341
396
384
364
349
359
366
378
397
411
426
430
426
382
359
344
350
349
361
369
388
360
363
370
366
378
340
504
404
375
374
387
391
399
422
437
433
434
395
366
364
349
346
352
359
374
370
359
361
365
370
357
398
413
392
367
373
380
389
398
425
432
428
427
385
358
341
340
342
347
336
342
356
351
341
346
345
354
313
531
367
349
350
358
363
373
388
411
417
415
388
357
336
324
326
333
337
346
359
353
347
351
360
361
323
575
395
371
377
384
388
397
423
435
444
441
415
386
357
356
361
359
356
372
382
370
364
369
369
374
331
582
407
382
379
384
390
399
419
432
444
443
417
384
360
354
349
355
356
346
360
355
358
352
351
354
355
341
402
388
373
349
360
360
367
382
399
414
414
397
363
331
325
323
328
331
345
345
362
350
354
355
364
353
412
402
384
374
370
384
393
394
423
434
439
428
390
362
351
357
357
353
351
371
375
353
360
355
359
364
379
444
400
370
366
378
390
408
415
436
433
431
387
357
350
337
343
348
333
350
348
358
353
342
342
344
343
316
459
377
351
359
363
370
387
395
406
418
397
385
344
327
327
325
326
345
340
361
351
355
349
354
362
324
554
401
366
371
385
393
414
414
435
436
441
410
376
357
351
365
356
364
365
384
367
367
367
373
369
329
578
405
375
376
382
391
395
412
424
436
438
413
376
355
351
352
343
353
353
352
353
379
360
358
352
405
376
283
549
393
359
365
356
365
378
387
415
415
421
400
365
348
334
347
351
346
351
354
370
363
366
364
364
369
333
531
415
373
369
364
372
388
408
415
433
430
420
364
352
337
338
332
343
340
347
352
352
345
342
350
349
336
400
399
366
353
355
359
379
377
403
418
423
412
370
352
327
327
327
340
350
352
355
367
344
354
356
354
335
532
396
373
371
375
387
397
403
432
434
438
419
380
351
348
344
347
352
362
357
365
368
373
365
367
373
366
329
589
417
374
383
393
383
401
412
436
438
432
411
368
345
339
339
339
346
340
345
357
350
343
348
348
347
311
568
375
357
357
356
361
383
398
419
428
423
406
356
332
336
329
342
346
339
352
358
372
374
350
365
373
333
533
393
383
372
385
395
400
414
439
443
451
431
393
368
352
356
356
368
366
371
378
386
367
371
373
377
360
455
410
388
374
380
383
392
408
433
438
447
431
388
366
352
351
355
354
363
361
365
378
373
363
370
375
365
331
549
398
372
363
373
373
374
394
410
426
425
416
367
344
333
333
325
334
339
340
354
353
343
340
348
350
341
427
375
363
351
364
366
379
390
415
434
434
417
385
363
340
344
352
354
366
358
360
374
375
377
371
375
379
381
325
598
421
382
382
395
387
403
423
439
450
443
420
379
355
349
358
348
353
358
361
367
368
360
368
360
368
321
574
403
372
367
378
382
390
416
423
439
435
415
366
348
336
342
344
348
340
351
354
359
354
357
350
353
353
350
426
383
356
363
369
373
381
405
418
430
413
386
349
334
330
328
338
337
343
351
368
348
341
348
351
357
352
455
385
371
368
382
388
400
423
443
456
428
396
374
353
356
357
365
363
366
375
380
372
369
369
369
363
458
419
382
377
378
384
391
410
428
436
441
430
382
362
361
344
353
362
358
366
364
379
354
365
362
366
355
398
408
383
357
366
368
374
393
411
418
428
415
378
350
329
336
330
326
342
347
332
334
352
344
339
344
336
345
356
416
373
357
356
358
378
393
406
422
432
425
393
368
355
336
349
362
345
360
361
383
370
365
372
377
367
329
566
409
370
378
381
387
405
421
437
449
436
419
368
357
347
346
355
357
358
353
352
349
349
348
355
321
519
376
355
360
351
357
375
394
408
415
420
401
363
331
320
326
327
327
337
342
346
353
344
343
350
361
319
560
387
370
369
369
376
402
411
426
440
445
419
389
362
345
353
364
355
358
360
371
379
364
370
371
375
339
524
404
379
369
384
382
398
405
431
441
441
424
387
358
336
337
343
353
342
351
359
362
342
347
354
352
328
491
377
361
352
360
371
378
403
409
429
427
419
379
342
335
340
332
339
349
354
359
371
355
361
369
366
352
472
396
388
376
383
384
392
417
427
443
450
438
400
365
355
358
353
363
358
366
380
372
366
362
369
365
331
563
403
374
366
374
374
389
402
420
437
433
424
379
338
346
345
347
343
346
340
347
351
341
339
343
353
343
439
380
362
337
350
361
373
379
403
417
414
408
372
336
324
322
327
324
322
344
351
342
343
345
353
355
320
556
396
360
366
382
377
400
410
436
445
452
430
387
361
356
354
362
365
371
375
384
372
371
374
380
374
383
458
408
379
388
384
398
406
432
443
446
444
400
366
353
352
345
353
349
358
367
358
358
343
349
355
305
568
382
349
356
366
362
385
393
406
425
416
394
350
324
328
322
327
340
346
354
359
349
350
357
358
344
475
394
382
366
383
384
393
413
434
448
449
438
396
368
350
357
357
363
372
366
377
377
372
363
370
371
368
415
428
397
367
375
383
392
402
421
441
442
434
393
357
348
337
340
340
340
348
349
345
357
360
348
346
353
358
301
561
383
352
356
359
364
380
391
405
424
423
409
365
339
332
329
345
345
354
346
359
366
360
351
358
364
358
432
415
393
374
379
378
392
412
430
435
439
436
395
368
348
345
347
351
343
357
362
367
375
360
363
371
372
341
535
407
378
367
382
388
392
405
426
438
444
425
384
352
337
341
346
339
338
340
350
346
359
350
343
340
343
340
324
464
384
354
353
365
376
380
404
424
425
425
401
361
337
333
345
352
351
366
367
381
360
372
360
373
352
447
406
395
370
382
383
401
412
430
443
453
440
400
366
354
356
354
354
365
372
362
374
375
357
380
367
365
401
419
402
359
373
385
378
402
410
432
439
426
395
350
345
350
343
339
346
359
354
364
375
354
352
361
364
335
447
392
370
352
352
362
363
383
394
414
419
412
376
341
310
321
326
324
329
326
339
348
339
343
339
338
332
373
392
367
351
353
366
371
386
408
430
441
430
404
363
350
349
354
353
363
371
381
383
368
369
367
368
358
462
405
390
377
388
378
395
406
426
445
447
441
399
360
354
352
352
356
359
354
361
370
374
352
362
359
364
315
576
408
362
363
366
382
385
398
417
435
436
403
365
336
328
324
324
324
329
331
344
339
322
333
335
334
282
555
359
335
340
339
348
361
380
397
411
414
391
353
324
323
310
320
328
333
343
342
335
336
346
350
337
400
403
387
361
374
388
386
405
427
436
449
439
401
374
355
352
361
357
370
380
383
382
372
377
375
380
344
572
409
387
384
388
391
400
420
435
453
449
436
390
368
365
354
364
371
365
369
372
379
373
366
370
370
369
322
583
398
369
369
382
379
385
409
429
437
440
415
373
352
335
339
336
332
352
351
352
359
339
347
351
355
347
383
410
382
351
369
375
376
390
421
427
422
425
394
354
341
338
347
350
344
354
348
359
351
364
362
356
362
360
363
316
594
412
362
365
373
392
382
409
423
443
440
418
384
353
340
346
339
340
342
345
348
355
350
343
344
348
313
550
367
355
347
357
359
376
393
409
427
428
412
377
339
329
328
330
334
339
350
358
344
353
356
357
369
317
546
401
365
374
378
400
401
427
446
450
442
414
378
365
359
352
359
365
362
371
374
379
393
371
379
371
377
334
595
410
376
374
389
398
394
414
444
464
446
439
394
375
358
350
349
353
354
352
362
366
354
356
351
364
356
317
543
391
356
362
363
372
383
397
426
422
425
404
353
341
328
338
335
339
339
342
348
360
360
346
364
360
365
319
586
401
376
372
374
388
391
417
445
440
448
426
390
362
354
358
354
359
368
365
370
379
374
360
367
378
375
334
547
415
376
378
381
377
390
409
422
436
429
398
364
340
335
332
336
339
337
351
354
351
339
337
344
354
295
566
378
350
357
358
375
379
394
416
419
424
401
356
336
338
327
335
346
353
356
364
375
352
359
363
366
333
555
394
377
377
384
391
402
415
440
448
448
434
393
370
352
351
360
361
359
364
358
376
370
371
363
368
367
362
472
404
376
375
374
377
393
406
417
439
441
438
403
354
341
338
337
339
335
351
346
361
345
345
348
349
346
349
425
376
351
352
353
372
388
397
412
426
419
382
348
324
332
324
328
338
340
360
352
347
345
356
355
313
572
393
372
372
374
392
401
421
433
449
442
422
383
362
343
356
357
362
369
377
377
364
365
363
373
328
577
401
375
373
379
377
395
410
426
444
448
429
389
365
348
351
351
351
348
352
375
344
350
359
349
355
309
563
381
356
358
364
363
378
398
424
422
424
400
362
335
326
327
333
335
336
352
352
345
341
343
345
311
574
393
367
364
374
386
383
415
428
445
443
427
388
369
352
367
362
368
374
387
372
374
366
370
375
334
582
406
374
368
375
386
396
410
422
437
442
427
384
343
345
332
335
335
334
360
340
339
340
346
340
323
448
368
356
344
358
359
365
379
394
415
411
412
376
333
328
332
324
335
350
360
360
359
362
359
367
327
592
406
376
373
382
383
402
418
437
446
447
429
392
356
351
350
353
358
372
373
364
361
362
368
363
318
556
407
361
370
374
389
385
410
431
452
444
409
370
351
350
345
346
345
350
355
353
343
350
347
356
321
502
374
368
345
358
365
375
394
414
418
424
413
382
335
329
328
330
333
343
351
346
347
347
348
353
321
568
400
368
375
375
382
396
419
429
449
457
435
396
368
353
363
364
366
373
383
368
357
363
366
375
327
561
409
372
375
375
396
400
421
440
443
441
419
369
358
340
350
346
345
347
359
345
345
348
342
354
300
568
375
347
357
356
360
377
386
415
418
416
403
366
326
330
325
326
331
344
356
337
340
341
350
348
345
444
386
354
361
378
374
405
409
430
448
427
398
356
352
342
350
353
361
375
357
355
366
364
357
344
499
403
364
371
386
388
392
410
431
445
442
406
369
346
351
339
344
345
367
355
338
349
352
356
340
425
385
369
345
348
367
369
388
405
423
431
418
379
355
324
331
333
340
344
357
349
349
344
352
358
313
575
406
364
367
379
378
399
413
435
441
440
422
380
355
354
358
351
365
379
370
360
364
363
370
332
570
402
370
366
382
381
394
409
420
439
439
419
382
353
340
348
344
348
355
363
365
360
357
351
362
351
460
390
375
367
370
381
385
400
414
431
435
436
393
364
346
349
349
356
352
348
364
373
354
353
357
359
327
504
391
367
363
369
370
375
389
415
422
431
422
380
354
330
339
323
338
342
354
354
338
347
349
342
294
555
374
366
354
360
376
386
406
425
427
435
415
374
347
344
346
353
362
374
371
363
367
364
369
365
401
447
399
363
384
376
391
409
423
436
441
442
405
368
364
356
361
362
372
371
375
361
359
359
367
354
387
425
378
360
372
368
380
388
412
420
422
421
389
352
335
335
331
341
342
361
355
345
352
355
364
311
567
408
373
361
371
377
395
403
423
434
438
410
370
347
350
336
340
353
370
363
350
351
348
345
326
519
391
363
355
359
362
372
386
409
416
420
407
369
340
336
323
328
334
336
349
338
332
335
334
337
289
511
386
337
344
348
360
373
383
407
413
414
379
346
325
324
321
332
335
349
338
337
338
343
345
301
559
396
362
353
379
379
397
417
433
450
443
416
376
358
357
353
373
371
389
378
370
378
375
379
329
595
420
379
382
388
390
410
420
440
456
449
420
376
355
358
353
359
351
362
371
378
368
366
369
367
363
436
422
397
377
381
381
392
403
418
439
439
429
395
357
341
343
340
343
340
345
354
357
356
355
356
354
350
332
468
386
356
361
374
378
394
417
424
444
425
402
373
347
345
344
363
351
366
372
380
359
367
375
369
363
392
431
388
371
374
378
390
393
420
418
434
428
387
358
341
338
329
340
336
340
337
344
347
336
338
344
342
307
520
384
362
336
347
353
365
371
415
402
416
405
350
328
317
311
314
321
326
344
351
345
344
337
352
343
390
426
391
368
371
382
390
395
419
439
455
433
396
364
358
353
358
371
364
382
378
368
370
375
378
327
571
426
379
370
382
382
394
408
426
446
443
422
374
348
346
337
342
343
353
358
354
343
348
346
350
300
534
391
352
355
354
363
380
394
410
416
425
391
345
330
323
335
338
346
363
357
353
353
359
361
357
427
420
382
366
368
380
391
396
423
440
448
433
392
360
354
348
346
353
363
369
368
361
357
370
368
335
535
416
377
374
380
384
392
405
430
439
448
437
393
361
353
349
343
349
360
364
351
349
348
352
354
305
564
399
354
358
358
377
376
400
417
437
420
401
364
333
324
330
336
344
354
358
346
346
349
356
313
550
401
365
368
376
386
393
412
432
444
444
430
388
362
345
352
358
367
378
368
370
365
371
367
335
570
413
376
367
381
385
389
412
430
433
437
420
376
357
351
351
347
358
360
356
377
360
365
363
363
370
335
521
418
371
376
376
385
395
407
427
430
437
404
367
344
343
339
339
337
346
349
358
346
349
354
352
320
528
388
360
356
361
368
381
395
411
422
428
412
370
348
340
337
340
357
354
372
352
357
359
362
364
342
485
411
371
376
383
392
407
425
438
447
438
403
373
350
347
354
355
359
370
368
365
357
361
367
318
570
413
375
368
381
380
387
402
424
433
437
413
363
342
336
339
339
333
336
339
344
353
347
349
345
352
342
405
393
370
352
350
354
378
378
405
419
424
418
385
339
332
330
336
339
342
347
345
357
351
342
352
352
344
377
418
378
346
348
359
367
377
396
406
413
404
375
326
318
312
319
320
328
332
334
341
345
343
326
342
350
318
527
401
359
360
357
364
367
384
404
418
420
409
373
335
324
326
332
332
333
343
343
362
353
344
352
349
354
302
556
399
365
357
369
380
387
411
431
442
439
418
382
349
350
349
362
358
366
368
373
384
377
372
381
376
377
388
467
407
375
380
390
399
413
424
441
456
449
413
378
365
358
359
361
366
378
378
371
380
383
383
379
385
387
333
604
432
379
383
382
388
392
413
440
431
438
428
393
356
341
345
348
351
357
349
359
363
366
361
359
364
367
364
338
478
399
361
370
378
378
397
410
432
439
440
420
374
357
354
352
363
358
364
369
381
376
370
370
370
372
323
568
425
375
378
384
387
404
417
433
445
436
421
371
350
347
347
348
351
354
356
352
362
361
358
367
377
370
365
369
370
330
550
417
370
372
374
379
389
401
418
435
441
427
392
367
351
347
347
354
346
349
358
358
362
364
363
358
360
363
308
575
410
366
356
378
367
391
399
419
429
428
409
370
344
335
338
337
345
347
351
357
364
359
359
363
363
357
423
416
387
372
373
383
388
397
420
438
438
434
397
371
353
350
356
355
364
360
367
373
375
375
362
378
366
330
565
413
373
365
373
371
385
399
410
427
432
410
379
340
330
335
330
338
344
349
353
355
351
346
354
356
305
564
399
357
362
367
372
391
407
425
437
438
418
381
352
353
347
353
362
365
360
368
369
361
365
374
373
334
564
417
378
374
388
384
405
410
434
444
445
423
390
362
350
350
351
359
356
362
364
376
373
370
364
375
373
324
558
424
368
380
381
390
392
414
425
430
428
412
371
340
342
341
340
336
345
346
358
349
340
349
353
349
305
545
390
358
366
357
369
387
407
412
424
428
409
365
347
332
342
348
349
354
358
373
369
367
359
366
371
320
554
415
367
378
377
388
400
419
427
439
443
418
378
355
350
348
346
353
359
354
372
359
357
361
365
359
316
576
407
359
367
376
376
389
405
426
432
436
409
380
352
343
347
343
349
346
348
355
356
379
352
353
359
357
358
320
519
396
354
365
367
373
391
395
424
429
417
397
354
329
332
325
325
332
328
337
351
340
337
340
341
354
293
562
385
345
354
350
356
371
375
401
413
411
394
345
319
315
325
315
309
328
333
339
324
331
328
340
335
328
441
367
340
355
357
364
375
399
416
432
427
389
350
338
332
331
329
331
340
345
348
345
347
349
355
339
409
400
380
361
371
370
385
395
413
431
432
433
394
371
342
337
349
347
361
364
374
360
364
358
369
366
372
454
397
369
378
376
393
407
422
433
444
441
407
361
356
338
355
356
357
371
367
362
352
367
359
363
415
417
388
365
379
378
393
402
414
435
450
432
404
367
349
345
361
352
361
351
361
366
357
351
359
358
352
383
420
380
359
358
363
379
385
409
421
427
416
386
352
335
337
325
338
337
348
358
344
343
344
352
356
314
495
393
360
365
370
386
391
409
423
435
435
407
376
351
347
349
356
361
359
374
359
352
366
367
366
325
548
412
369
385
375
391
390
409
432
438
433
406
375
348
342
337
334
334
351
355
346
339
348
347
342
338
447
368
357
353
363
377
386
412
424
431
428
395
365
343
346
348
355
358
375
374
358
369
371
371
332
591
406
377
380
391
395
400
421
443
445
449
427
404
357
353
361
362
364
370
385
372
372
365
376
370
324
586
399
360
361
366
366
375
385
406
420
419
396
362
330
323
326
325
329
340
350
338
344
345
344
354
299
525
392
352
351
366
378
383
404
423
425
441
407
378
364
352
352
350
368
368
382
363
372
371
374
365
386
452
396
373
375
372
387
397
422
425
431
431
407
352
350
345
351
359
360
366
373
357
364
359
367
355
310
559
403
359
362
371
375
378
399
426
424
423
404
366
342
332
335
335
341
351
361
346
348
354
351
351
369
415
388
362
365
376
382
401
418
444
437
426
409
372
352
365
352
366
372
388
374
370
363
360
373
331
586
410
375
376
376
389
391
409
419
433
437
417
377
365
353
352
354
347
363
368
349
351
352
351
352
297
551
388
358
354
365
363
377
391
423
421
418
401
361
332
330
338
336
341
354
359
345
335
343
351
348
347
451
376
360
361
372
381
403
410
424
437
436
397
367
350
351
352
356
365
376
363
358
360
360
363
321
548
408
366
368
372
383
400
413
426
442
444
412
375
355
345
351
344
346
358
346
342
347
352
345
299
567
387
364
359
365
379
388
408
418
433
427
411
362
342
334
330
336
354
355
348
342
340
349
351
301
566
397
360
361
361
376
389
396
426
432
429
402
361
336
338
337
333
354
350
344
342
335
347
344
362
422
373
352
350
361
362
381
398
419
420
407
385
334
320
327
327
328
347
343
336
339
340
334
308
520
371
356
348
349
358
368
386
415
416
420
404
370
341
334
334
338
351
361
350
350
349
354
358
312
538
396
367
363
380
379
392
416
429
442
437
409
374
363
355
355
371
374
369
368
376
374
376
341
544
424
382
393
399
399
414
426
442
446
440
416
371
356
357
356
368
372
355
359
354
361
353
348
474
393
366
367
372
387
401
420
432
438
430
403
362
359
344
372
370
370
350
345
363
366
364
381
457
398
369
383
378
408
399
429
449
445
434
403
359
354
356
356
372
380
368
362
370
361
369
344
501
396
365
373
378
383
400
415
432
435
430
405
368
355
352
348
360
366
361
356
348
353
355
311
560
381
360
358
358
369
381
400
418
422
424
400
355
343
321
331
335
341
334
324
330
332
331
291
548
359
354
350
357
374
381
407
424
431
440
423
376
350
353
353
358
368
368
358
356
357
366
312
578
399
366
373
369
384
402
414
433
432
446
406
373
363
348
351
359
360
365
365
358
362
373
356
391
422
393
369
377
381
389
398
415
425
428
425
386
356
334
337
338
343
352
353
348
342
345
343
322
503
368
360
349
360
371
386
401
410
420
420
402
379
340
331
345
339
350
366
348
354
358
362
360
390
419
395
373
370
389
396
418
429
441
446
433
391
365
354
351
356
357
378
361
359
358
361
361
362
445
392
367
373
378
384
403
422
436
438
429
396
361
352
351
351
371
365
356
358
356
351
352
342
467
375
362
358
370
361
373
402
406
422
427
409
372
349
331
345
334
344
345
357
340
345
350
339
347
400
383
377
350
367
366
382
395
416
426
427
420
386
349
339
340
340
349
357
364
348
348
348
355
314
534
377
359
364
358
372
378
398
416
429
431
406
370
342
340
336
340
346
350
360
358
351
351
362
361
331
519
397
366
368
365
374
385
393
413
425
426
402
358
334
332
339
341
347
350
359
343
348
350
350
312
570
378
356
359
368
367
380
409
415
431
432
414
372
350
344
345
361
364
373
364
360
358
365
364
315
576
403
372
374
379
382
401
408
428
439
441
410
365
349
326
331
330
339
351
345
328
335
321
327
283
541
364
336
336
333
339
347
362
376
388
389
358
319
292
294
288
292
304
309
321
291
309
305
313
274
519
343
329
326
349
348
362
384
402
408
405
394
346
330
312
321
321
347
354
351
339
352
347
364
304
593
405
367
373
387
390
414
429
446
451
450
424
383
369
357
353
376
368
391
378
375
371
380
376
337
571
421
376
385
387
391
408
424
449
450
449
421
380
359
353
366
355
364
371
380
378
373
373
370
372
410
422
394
375
375
384
383
399
424
435
442
435
391
356
346
335
334
337
357
347
362
349
341
343
351
349
380
411
388
352
363
379
392
402
424
434
442
437
392
363
347
351
350
362
370
384
384
352
363
370
371
329
548
411
367
374
371
387
393
418
430
452
446
415
379
349
346
353
348
352
359
365
359
355
357
349
341
469
390
378
361
371
373
388
405
422
434
436
418
386
356
341
342
346
353
356
372
372
366
363
374
363
352
493
402
384
375
386
385
393
409
429
448
450
433
396
366
347
353
345
355
360
359
373
361
361
362
370
359
352
468
396
369
367
371
379
404
408
437
445
429
400
364
358
344
344
349
353
369
336
365
361
353
358
359
360
310
559
387
361
355
359
363
366
392
409
422
412
391
346
323
313
316
319
320
325
324
337
326
323
324
325
301
421
360
338
324
341
340
346
363
379
398
400
388
347
319
311
310
309
318
328
319
332
347
353
345
350
353
357
313
573
398
359
360
368
376
389
405
427
440
444
425
379
350
346
347
351
357
351
363
367
354
356
347
357
329
533
385
371
368
375
383
394
418
435
455
439
431
389
358
352
356
358
360
375
379
388
374
377
378
378
342
585
425
389
382
390
392
403
412
435
453
447
429
387
360
352
349
349
355
354
362
376
356
360
356
362
351
471
399
382
357
372
374
388
402
426
440
435
421
387
359
346
346
338
351
339
347
348
359
352
346
342
350
358
317
560
397
356
353
350
362
374
394
405
421
420
398
368
333
330
327
336
329
338
350
359
370
363
375
373
384
341
584
412
386
390
395
400
413
416
449
466
461
438
406
378
367
362
360
366
369
375
381
382
371
370
381
374
319
569
408
368
364
368
375
382
394
417
419
423
402
362
336
322
325
325
326
331
339
343
320
331
328
331
293
532
355
324
332
337
339
351
376
385
398
402
383
347
328
310
316
322
322
338
341
340
337
346
345
346
293
571
390
356
360
368
369
382
402
421
433
433
411
374
349
351
354
353
364
371
379
368
365
368
370
372
322
565
411
380
378
380
389
402
419
433
444
443
425
382
361
361
365
358
364
366
365
372
379
379
379
367
374
384
319
574
414
386
379
384
389
401
418
437
440
445
425
378
352
351
350
350
360
352
361
368
352
354
359
362
363
343
460
398
365
373
373
382
397
413
435
436
426
403
372
357
346
352
352
347
353
350
364
357
351
354
345
356
307
539
385
359
349
358
364
319
336
429
392
329
372
339
304
324
320
324
283
372
354
341
351
334
329
347
356
346
440
469
380
372
367
370
370
393
427
509
453
423
432
404
388
381
382
353
347
336
328
361
368
386
400
403
396
321
544
411
370
353
380
401
401
413
423
435
413
396
370
330
334
320
319
322
326
328
336
316
328
322
320
280
512
359
336
332
346
360
359
374
392
407
405
395
368
341
336
322
344
318
316
291
296
275
280
323
347
337
479
405
348
341
350
371
392
416
455
454
453
419
380
355
336
358
361
368
387
399
398
410
401
401
384
349
578
422
389
387
388
395
398
417
426
435
437
422
384
363
358
360
374
361
360
364
355
346
351
347
351
290
531
389
343
345
351
352
364
381
392
399
393
377
334
318
312
310
312
322
329
333
325
320
332
327
308
496
371
352
344
350
356
372
372
393
411
414
407
362
341
329
329
331
336
346
344
348
360
356
351
345
345
351
323
467
391
352
362
375
377
390
407
424
428
430
412
377
354
344
345
351
361
365
378
355
364
362
362
354
414
411
396
372
386
381
394
406
428
432
451
442
410
381
364
367
370
373
382
388
395
387
387
384
390
388
348
541
429
395
401
402
407
417
437
454
467
465
436
406
379
366
362
365
362
360
369
387
364
369
365
367
363
376
428
395
368
364
375
373
401
408
420
433
420
402
366
343
337
352
347
358
369
373
362
360
358
370
362
312
551
413
365
370
386
387
400
414
431
429
438
406
371
353
343
350
353
356
354
363
369
367
359
366
364
363
326
569
409
371
378
381
382
399
408
424
441
436
432
385
357
347
353
347
351
354
354
359
367
358
353
359
367
354
384
416
384
371
371
373
388
399
416
430
436
428
411
357
350
345
345
360
364
372
384
367
361
372
371
369
367
457
404
376
377
383
393
407
424
435
442
444
418
359
327
341
340
352
350
361
352
345
341
339
340
340
293
484
374
331
335
333
348
341
374
384
396
385
369
316
301
298
296
301
310
304
313
314
310
318
325
318
286
473
373
327
342
350
357
379
386
403
410
417
395
349
334
335
338
344
356
363
369
364
353
355
362
359
376
438
394
373
375
389
392
413
431
444
447
437
405
379
359
356
353
358
372
365
384
369
360
362
364
361
379
454
393
363
382
372
386
393
405
423
425
415
386
360
374
380
373
375
378
383
384
384
375
378
383
368
316
581
413
376
371
385
374
387
401
422
426
428
408
370
346
340
336
338
344
348
351
365
354
347
356
352
365
306
561
411
368
372
370
378
386
414
433
441
445
413
379
357
344
348
347
354
359
375
372
363
368
363
371
357
440
405
397
372
372
384
387
402
429
442
437
432
408
359
349
354
347
364
361
368
371
370
354
370
359
359
341
499
402
365
378
373
383
398
414
436
437
428
401
364
354
347
349
353
352
360
376
375
361
364
369
366
314
590
412
374
375
385
389
402
405
450
433
431
409
372
345
342
337
340
345
337
343
357
338
339
336
278
313
314
438
359
318
327
357
358
365
370
401
436
432
401
387
361
363
323
361
332
355
376
386
394
391
390
414
416
449
474
447
407
395
392
416
395
419
416
422
416
373
365
325
327
321
309
307
280
276
289
293
283
308
311
306
261
499
352
310
316
324
333
347
366
379
402
400
385
330
336
319
320
332
333
360
346
341
346
359
354
314
525
409
373
374
388
391
405
426
440
443
440
418
384
387
382
370
377
388
381
370
366
363
337
367
306
522
388
314
323
336
336
384
392
377
381
398
365
348
384
346
332
343
353
343
345
349
359
346
363
381
334
518
470
416
409
390
368
371
375
387
444
447
421
369
318
377
342
311
373
341
345
347
352
340
355
357
353
381
358
397
421
457
418
371
350
335
332
330
424
391
355
341
379
322
308
313
329
330
319
333
340
350
362
359
332
574
451
424
430
402
356
328
336
368
414
391
379
350
305
304
371
342
327
318
325
336
340
345
319
342
347
320
436
339
342
330
381
375
342
376
413
407
400
360
391
357
368
330
354
310
348
345
362
358
378
374
372
353
494
398
384
380
373
386
400
415
444
460
457
439
404
363
343
346
346
353
364
365
371
361
356
354
353
322
524
410
367
365
374
363
393
386
401
415
429
413
378
343
331
334
336
344
358
354
351
366
340
355
318
577
430
378
382
372
382
385
401
426
427
438
409
373
358
352
335
348
354
367
366
356
368
364
372
321
518
413
368
383
386
391
403
412
429
427
434
411
371
352
355
343
342
351
367
361
354
362
360
355
348
440
390
364
362
374
381
390
397
409
419
424
395
370
355
345
344
349
359
361
356
355
369
363
321
544
412
383
376
384
399
404
412
426
443
440
425
391
368
353
361
359
359
382
371
365
364
368
364
357
404
397
370
374
374
388
399
413
429
442
435
404
380
364
360
363
374
380
377
370
360
372
367
321
482
406
369
366
371
388
383
403
426
431
427
390
357
342
342
341
351
365
361
347
354
351
349
301
554
406
362
378
377
391
402
419
430
438
437
420
391
362
356
358
369
371
373
367
367
373
362
337
532
402
372
366
370
383
392
403
420
435
436
425
389
370
345
355
356
363
369
372
375
366
371
375
327
586
407
375
383
377
384
398
417
432
443
443
422
372
366
357
359
357
369
373
368
347
353
358
312
545
394
359
350
371
360
366
393
411
426
428
412
358
331
328
325
329
330
342
345
346
337
326
339
344
304
442
357
335
326
321
333
350
358
376
397
381
337
303
287
272
281
293
291
299
306
297
302
310
298
298
256
505
340
309
315
315
327
351
367
386
400
395
368
331
321
314
328
326
334
343
353
362
356
353
357
361
341
495
410
374
380
378
391
399
418
445
460
469
462
409
383
376
365
369
372
378
392
392
375
371
378
382
381
358
485
411
377
379
388
395
413
430
451
453
445
409
370
345
348
345
353
347
352
349
357
364
365
366
364
364
361
352
512
392
361
368
369
383
394
412
430
439
441
417
374
356
350
337
342
341
351
353
352
362
368
349
353
348
350
307
568
391
355
347
356
358
363
378
396
413
414
411
366
336
320
322
324
329
329
331
346
362
365
358
365
362
369
376
416
381
364
377
388
394
406
428
443
449
442
416
384
370
351
348
354
359
363
377
363
363
364
365
359
425
422
385
381
371
375
383
392
415
424
434
434
394
359
343
343
342
350
342
355
362
358
363
356
362
355
315
542
401
368
372
380
384
393
415
431
449
439
414
382
351
347
340
343
342
351
359
357
349
354
345
350
323
483
393
360
355
360
368
375
391
407
422
432
422
390
367
352
358
354
361
357
367
369
376
370
370
373
376
323
571
419
363
375
378
383
398
406
425
436
433
417
386
364
344
349
347
350
356
364
363
359
368
360
354
384
408
385
367
373
369
379
389
404
422
425
419
396
376
355
338
349
348
362
349
350
354
361
362
329
546
401
376
384
384
399
401
419
440
438
444
432
406
373
354
365
359
383
377
370
362
362
365
352
513
396
386
381
385
390
403
405
430
439
440
432
398
366
354
354
355
362
376
365
353
357
368
346
417
403
375
362
365
378
383
396
408
422
424
430
392
362
355
345
349
359
359
359
349
354
354
362
311
572
396
366
373
386
387
396
418
436
442
441
420
385
365
351
350
363
365
374
370
371
369
365
369
332
560
403
374
375
383
386
388
407
432
429
445
419
388
353
350
345
359
364
368
360
354
354
359
342
483
396
372
362
363
369
380
396
415
426
432
419
381
351
337
337
345
348
367
358
353
354
360
359
344
497
402
376
367
364
372
394
391
423
438
436
433
394
362
354
354
354
361
368
362
381
370
365
378
362
363
435
402
393
385
384
394
407
429
428
456
454
449
418
389
374
371
376
381
384
386
373
370
379
366
346
484
405
376
361
367
362
367
379
391
406
397
390
354
321
297
301
301
298
314
324
301
299
299
307
293
245
511
341
295
300
299
304
323
341
357
360
359
333
308
281
291
285
296
302
302
313
325
318
320
325
328
325
422
404
363
355
355
365
381
403
413
444
436
443
407
377
367
365
365
360
370
367
383
370
373
373
371
353
288
562
375
338
352
366
362
369
350
414
406
424
416
404
382
324
346
373
342
332
345
391
355
343
372
357
352
555
436
415
408
424
428
453
459
467
477
485
483
434
418
408
394
388
386
392
393
390
379
369
370
364
323
496
404
357
360
360
367
373
370
368
386
377
363
346
320
306
309
307
325
327
333
333
324
332
344
338
326
399
359
327
338
345
360
354
373
392
399
403
374
353
336
326
343
344
352
363
354
352
360
368
340
486
401
384
376
396
388
403
407
424
437
439
426
405
378
368
356
361
374
381
373
370
373
373
374
346
462
410
377
385
385
392
397
409
418
434
429
419
391
377
366
362
374
384
389
365
372
365
371
342
557
414
391
386
398
391
400
410
431
433
438
418
401
374
368
370
373
383
393
374
368
375
383
365
447
406
386
382
379
389
394
405
419
423
430
416
386
360
345
346
355
366
372
348
347
354
358
339
330
418
368
279
355
313
328
307
306
330
363
344
313
378
312
288
288
291
305
318
380
352
342
323
318
275
539
418
374
377
369
378
374
380
403
423
465
445
411
365
359
326
318
322
333
367
356
360
384
372
369
351
372
348
568
357
355
325
419
383
376
415
421
385
372
338
317
378
343
327
332
339
342
347
375
394
421
386
384
365
343
549
458
408
419
436
449
469
500
517
522
514
482
459
425
414
414
404
408
340
374
377
394
369
302
416
348
304
333
369
345
368
362
378
380
393
380
314
358
322
310
307
317
332
359
361
393
384
383
396
451
403
366
374
372
384
387
413
441
447
443
408
380
355
353
347
360
387
376
357
349
344
329
295
518
406
371
357
383
346
339
342
353
375
406
424
388
352
331
332
348
325
337
341
352
360
365
349
326
465
418
400
410
420
427
435
441
442
448
424
409
388
373
371
375
373
391
403
394
388
389
387
367
371
433
376
369
363
370
374
384
393
405
402
386
367
340
312
311
306
318
321
321
308
306
311
309
258
538
364
309
317
321
333
348
353
365
379
388
369
340
321
317
318
329
323
345
341
332
337
350
345
351
437
384
370
373
379
397
401
422
431
437
437
402
376
361
364
358
368
363
382
377
362
377
372
371
319
577
409
371
374
380
386
396
406
430
427
421
403
374
340
348
346
347
356
345
356
352
361
345
352
347
357
296
578
387
355
352
349
350
362
389
388
391
402
373
338
323
310
320
325
325
335
338
350
357
350
347
350
365
343
475
419
376
369
381
385
394
405
428
442
439
435
401
394
363
366
365
367
371
373
370
386
385
378
376
370
380
392
467
403
372
383
388
395
418
420
417
426
420
404
367
348
342
342
342
349
361
360
348
341
345
348
344
443
399
364
343
356
361
374
371
386
395
395
396
359
318
334
311
322
340
326
335
346
336
330
350
349
291
540
408
335
368
383
358
392
388
411
418
410
391
366
350
349
355
362
375
