257
273
265
261
264
269
225
449
334
268
271
280
290
301
323
341
344
321
289
282
285
290
307
318
311
313
322
325
291
467
373
338
343
349
363
378
395
399
390
357
335
327
331
336
349
345
338
345
346
306
546
426
347
351
362
371
386
403
412
409
385
351
339
339
341
352
357
349
351
357
358
317
500
397
357
359
368
374
391
405
411
400
364
339
334
335
340
355
349
344
348
350
325
494
426
350
351
354
364
377
394
407
412
390
356
344
342
346
352
360
352
353
354
354
299
539
407
352
356
363
371
384
401
407
398
362
335
332
333
336
352
346
339
341
343
315
475
418
337
341
343
352
360
382
386
394
365
337
317
317
316
332
333
322
322
326
328
288
447
374
327
334
338
347
365
380
382
371
340
319
312
318
325
340
331
322
325
328
294
513
394
325
331
336
345
358
374
385
383
354
324
312
313
319
331
338
328
331
334
335
280
536
387
335
344
349
363
382
397
402
391
358
335
332
334
335
354
347
340
344
344
293
576
416
337
341
345
351
366
378
386
384
357
323
313
319
316
334
329
320
324
322
300
452
390
331
326
330
341
353
373
388
384
359
324
313
304
314
325
318
312
313
319
287
486
385
320
320
322
333
349
362
371
369
348
311
301
298
302
322
312
306
307
312
290
451
392
316
308
320
331
340
359
371
374
352
317
306
308
309
327
316
311
317
323
281
534
395
325
324
331
341
357
373
384
381
359
326
316
324
326
343
334
334
338
341
274
604
410
334
341
350
358
377
393
401
395
368
337
332
334
349
346
338
340
342
344
321
473
380
347
350
355
366
381
393
393
381
349
330
332
332
348
342
339
340
342
315
477
407
341
343
341
353
363
382
388
389
368
341
323
324
333
339
329
324
329
336
276
564
407
335
338
344
353
367
380
384
374
347
324
317
321
329
342
327
328
329
328
277
520
377
329
334
347
353
371
387
391
381
347
322
321
319
335
329
323
324
329
311
443
406
336
329
335
344
357
372
378
379
361
328
314
316
318
332
322
319
319
324
271
561
399
323
328
336
344
359
377
382
382
357
325
316
320
329
338
331
332
336
338
279
527
401
342
348
357
366
381
393
395
384
357
340
335
334
345
355
346
348
353
350
300
510
403
352
361
363
379
390
403
408
402
367
342
343
342
353
362
344
348
350
353
300
513
401
348
355
359
370
387
397
399
387
358
329
323
328
338
349
334
332
333
335
270
561
395
330
333
339
349
366
378
382
371
343
317
308
313
315
329
321
319
319
322
260
574
392
316
324
329
339
352
367
374
369
343
312
303
306
309
328
322
317
320
324
294
476
402
327
324
331
341
351
369
377
376
357
326
312
313
317
325
332
322
324
327
330
274
507
379
332
337
345
357
371
383
385
379
347
323
320
324
326
338
328
327
332
334
280
542
408
334
338
348
352
368
384
390
387
366
336
327
327
330
350
347
340
344
346
336
450
411
360
355
360
370
385
403
408
410
391
359
346
346
346
362
365
350
353
353
354
296
534
403
345
352
356
366
379
390
392
379
348
324
316
317
320
337
328
321
326
326
303
462
399
328
324
330
335
349
367
377
375
353
319
307
307
311
319
329
319
314
321
322
262
549
390
325
331
338
349
364
382
387
377
348
319
318
321
322
341
332
329
332
333
312
448
410
339
336
343
351
360
377
389
390
371
337
323
322
330
333
345
337
338
343
347
306
527
419
347
350
357
364
376
392
404
402
379
347
336
333
339
346
357
344
345
347
350
301
546
418
346
351
355
363
376
396
405
399
374
346
331
328
333
345
352
346
340
346
350
290
564
412
342
348
350
360
375
394
399
394
364
335
325
324
330
337
343
329
326
328
329
270
556
394
323
329
332
342
358
376
379
373
343
312
304
305
312
313
326
319
316
316
319
265
552
394
315
317
323
340
353
372
381
375
348
318
310
308
310
320
331
323
325
328
328
266
564
396
327
335
340
352
365
382
392
387
361
337
332
323
326
346
350
344
351
356
354
331
473
395
359
366
376
389
411
424
430
409
381
361
357
359
367
378
365
363
359
357
317
550
424
355
356
361
371
383
397
406
397
373
340
329
327
330
338
338
327
330
327
330
289
519
363
323
331
335
352
368
374
374
380
331
255
308
301
288
298
302
306
310
290
216
510
332
281
290
292
302
321
330
339
336
306
283
278
281
286
294
288
285
297
302
250
480
372
312
318
328
341
358
376
386
376
350
323
315
319
339
342
332
337
342
345
316
463
396
357
368
377
390
401
413
414
404
369
356
360
355
379
372
355
357
354
333
343
421
416
360
345
375
363
368
376
378
363
287
265
257
257
268
272
267
271
268
262
319
331
281
274
286
298
303
328
340
338
335
298
284
289
294
312
303
305
311
319
271
516
390
332
347
365
382
402
424
431
419
380
347
340
338
360
355
343
340
345
342
310
458
388
344
345
349
363
382
386
385
360
307
288
293
307
327
323
317
321
336
283
548
402
343
338
358
357
372
392
389
372
349
320
311
323
351
336
319
309
315
281
433
382
362
304
312
298
363
388
378
344
387
355
327
328
346
343
316
319
322
309
269
394
294
285
308
327
339
364
369
378
359
320
300
300
311
324
319
321
330
333
319
433
377
334
337
336
369
388
404
404
384
350
326
316
325
338
336
340
319
332
337
443
365
339
349
364
377
397
415
427
413
378
358
358
359
369
352
344
344
336
324
446
363
320
323
333
346
360
371
376
363
332
318
323
326
342
329
330
341
334
292
471
348
301
296
296
298
316
339
336
312
273
255
270
280
302
315
312
328
308
256
588
420
360
362
370
380
401
411
432
438
407
384
383
382
392
382
375
386
376
333
599
489
372
385
391
383
388
416
403
403
371
324
314
304
296
309
307
286
301
283
380
392
310
304
290
303
320
342
360
354
329
308
295
293
293
309
299
297
297
302
232
456
336
292
296
302
317
348
364
366
363
325
311
312
338
358
357
349
348
356
297
560
453
381
384
379
381
390
399
396
374
340
302
276
278
280
292
277
277
282
295
254
458
323
302
296
307
314
325
337
340
342
319
295
297
306
311
319
313
309
312
303
406
417
337
334
348
361
376
392
405
409
397
372
359
368
367
373
373
359
359
357
303
621
451
375
378
380
387
414
436
440
435
408
365
349
345
343
354
342
329
328
327
256
555
373
323
327
336
345
361
371
375
388
362
327
320
318
314
315
300
292
290
281
368
384
302
286
286
295
312
333
351
364
371
328
306
307
310
327
326
318
323
331
278
558
418
343
349
358
374
390
413
419
422
405
372
360
365
367
377
363
359
360
357
327
464
391
352
373
374
378
405
452
449
440
400
376
372
404
416
412
377
374
368
306
557
406
333
333
337
345
357
371
369
361
328
291
274
282
280
279
265
264
270
274
310
350
300
276
286
304
319
340
352
349
338
299
276
268
267
277
258
249
252
250
184
496
317
248
253
266
290
314
336
340
341
313
290
280
285
295
296
286
293
295
263
485
374
306
310
318
330
345
363
374
377
361
333
319
317
327
334
327
328
335
334
355
445
368
350
355
368
381
402
418
423
418
378
359
342
356
370
357
349
365
372
304
587
414
354
361
364
378
385
404
406
388
371
335
332
338
353
350
346
352
353
283
610
415
336
335
341
351
369
382
385
379
349
316
309
307
320
325
317
319
323
299
470
422
330
330
336
344
360
377
386
390
375
341
325
326
333
343
339
338
342
344
342
453
381
352
360
366
380
396
407
413
410
384
359
360
371
397
358
368
377
377
341
508
432
381
386
393
394
408
419
419
404
375
344
339
337
352
334
334
328
325
277
504
376
308
316
320
321
342
352
355
343
318
285
278
281
302
298
288
290
292
256
480
367
302
313
318
338
351
371
383
386
367
334
321
322
333
338
334
336
347
345
409
466
383
374
383
399
407
426
430
422
394
353
331
328
330
328
319
318
320
313
320
423
335
315
317
327
340
358
368
372
362
333
304
305
320
327
314
317
323
316
366
379
341
321
327
330
344
365
376
374
357
324
311
308
327
335
322
323
328
321
355
401
350
327
333
338
352
368
374
375
362
325
309
308
312
325
311
309
312
313
263
504
361
317
323
331
343
362
376
379
368
337
315
316
319
335
329
326
331
334
269
564
394
340
350
358
363
378
389
393
384
352
324
333
313
335
331
324
327
335
277
594
390
333
347
360
357
374
384
385
401
350
330
327
326
342
331
329
334
344
271
597
414
342
358
369
382
403
417
420
417
388
362
372
365
372
379
359
371
375
309
598
413
368
380
382
384
398
411
412
404
379
343
340
337
348
338
340
346
334
293
478
372
334
345
341
365
380
380
376
374
348
312
314
314
317
306
315
301
294
323
401
311
286
289
294
311
323
340
338
323
297
270
273
285
277
268
284
281
261
442
382
295
285
303
323
312
334
339
337
320
289
283
289
300
303
298
302
314
264
528
406
323
332
338
349
357
376
379
377
359
331
328
332
346
338
338
341
344
274
546
407
342
349
352
367
386
401
397
393
368
337
339
348
357
345
343
348
344
362
401
370
351
360
358
368
392
393
380
371
345
333
324
345
342
333
332
335
312
493
394
335
336
338
350
367
382
391
389
367
341
336
324
344
334
331
323
328
282
550
411
312
324
329
341
364
385
384
379
360
319
310
315
332
329
327
335
332
272
560
398
339
344
350
357
377
391
393
383
354
335
330
338
349
346
347
346
335
420
418
362
355
356
361
382
398
414
410
392
350
342
347
357
358
358
355
347
297
567
426
352
364
365
379
396
413
414
396
365
343
343
352
361
350
347
348
342
323
473
373
344
346
359
370
387
400
400
383
348
334
332
341
340
329
328
329
298
498
404
332
328
329
338
348
363
370
365
327
295
288
286
301
289
284
287
290
215
559
349
273
280
288
299
313
326
327
313
279
267
266
268
281
272
275
281
282
246
454
331
298
303
316
329
348
361
364
349
319
303
309
313
323
315
320
326
321
385
435
348
331
335
341
354
373
383
380
368
332
322
323
333
335
326
330
332
316
465
425
353
347
354
364
377
395
399
395
373
342
331
333
352
351
340
338
340
326
427
433
353
343
347
354
366
382
387
386
367
338
329
330
332
349
341
340
344
349
273
625
413
345
352
358
371
382
394
400
393
363
338
332
339
348
352
345
348
351
335
451
446
363
354
360
365
380
393
398
397
380
349
336
338
340
356
351
344
344
347
275
634
421
341
346
355
364
378
387
388
383
357
332
326
330
334
345
335
334
336
336
322
474
367
336
344
350
360
376
384
385
377
345
328
327
328
342
340
331
336
338
296
542
420
338
342
346
353
365
379
386
383
363
337
324
331
336
345
340
341
337
340
294
475
395
339
347
354
363
381
394
394
382
352
338
330
339
355
350
341
343
342
308
523
409
344
344
349
356
372
385
389
378
351
324
314
316
323
337
329
322
325
329
264
554
387
322
326
333
343
361
376
377
368
333
311
309
311
325
328
320
321
326
313
418
413
333
326
330
339
354
371
381
381
357
326
317
318
320
336
328
325
328
331
265
610
408
327
333
340
350
363
381
383
375
345
322
317
319
328
336
329
328
332
332
279
536
380
331
335
346
359
373
386
388
375
344
325
322
327
337
339
332
336
336
325
394
444
348
334
341
350
361
378
387
387
367
333
320
320
322
335
335
327
329
328
305
500
424
335
333
339
347
361
375
382
380
358
327
315
317
319
333
331
325
329
331
303
502
422
337
335
340
349
363
377
383
380
361
329
320
321
323
335
333
326
329
334
312
462
427
338
334
339
350
362
378
386
388
369
337
326
327
330
340
346
338
339
343
338
367
455
365
343
347
355
367
381
388
388
371
340
324
324
324
331
336
325
319
318
314
323
398
339
314
316
322
330
349
357
356
340
311
295
295
301
312
318
305
303
309
306
327
383
342
314
320
328
335
357
368
365
349
324
305
305
310
326
327
319
319
320
318
329
411
353
320
324
331
343
359
368
370
348
320
300
301
305
315
325
309
310
311
313
267
474
360
311
316
322
334
352
365
370
357
325
308
305
306
320
328
320
322
327
329
278
505
376
329
336
348
356
376
391
393
381
352
332
333
334
344
352
348
347
354
354
295
566
419
360
366
370
385
398
416
420
410
382
356
352
360
361
372
366
363
369
372
326
576
447
373
375
383
391
407
420
430
420
390
365
356
349
356
372
368
359
359
358
354
383
444
378
349
353
358
370
389
394
393
374
336
315
308
306
311
320
311
305
305
306
246
547
379
304
310
314
323
338
359
364
357
326
300
294
298
300
317
315
309
313
317
311
370
414
339
322
329
339
352
371
384
387
368
333
321
322
327
334
345
340
339
342
346
283
576
416
340
346
354
362
377
393
397
388
357
331
323
320
322
336
331
323
326
327
316
368
405
336
320
325
331
344
358
373
372
354
319
300
302
302
316
316
311
310
314
316
265
476
371
311
320
328
337
356
369
375
356
334
308
304
308
314
325
314
308
310
312
256
530
385
312
315
322
331
349
366
374
365
336
307
304
307
309
333
323
322
326
330
300
501
412
334
335
341
349
362
384
393
392
367
333
326
327
331
350
344
342
344
347
325
498
429
352
343
350
362
374
392
400
399
374
345
334
337
345
359
354
348
351
357
322
526
437
356
356
362
372
384
401
412
405
380
344
332
335
339
349
339
339
337
339
279
600
417
334
337
345
353
367
379
387
381
353
324
320
322
329
335
325
327
330
334
267
555
387
330
337
344
352
370
383
387
376
345
324
324
326
338
338
332
332
335
325
371
424
352
334
342
350
360
379
390
387
375
343
329
334
337
348
343
337
344
350
301
550
420
349
353
358
365
378
397
399
391
367
338
331
330
350
335
326
331
331
323
334
404
346
315
316
322
334
349
357
355
335
300
286
290
296
317
305
297
295
300
261
508
391
307
311
316
320
336
347
348
342
316
287
280
277
289
292
282
283
287
288
288
393
336
298
308
314
329
348
359
361
348
321
310
313
323
328
321
322
325
322
279
546
387
328
336
346
350
369
389
393
379
348
332
326
329
344
345
340
339
343
345
341
455
382
355
359
367
381
398
412
412
392
358
343
342
345
360
353
349
349
350
322
513
408
348
347
352
360
372
388
392
390
361
329
317
318
319
334
324
318
322
321
281
516
386
319
318
322
333
348
365
371
366
337
307
302
306
305
321
314
308
316
320
281
530
400
326
325
334
343
357
374
385
384
357
326
321
323
326
338
328
325
331
333
279
567
406
330
335
343
352
365
382
385
379
355
326
322
328
328
343
340
337
343
346
297
571
427
349
356
365
372
392
406
415
414
387
358
347
346
353
362
351
344
347
348
293
550
409
344
349
355
363
379
404
400
392
363
340
330
335
342
355
343
335
336
337
282
558
402
331
338
344
353
371
388
392
383
355
328
323
324
332
352
342
337
340
345
297
572
413
342
345
349
357
373
389
395
390
364
335
329
329
332
344
331
325
328
328
275
571
397
321
325
329
338
351
365
372
366
337
304
295
300
301
318
310
302
307
310
254
560
383
309
311
318
327
345
361
366
365
338
307
301
304
307
321
316
313
320
323
263
579
396
321
326
332
342
359
372
378
376
346
322
316
318
321
338
329
324
325
329
272
568
403
330
333
341
351
366
379
388
384
360
331
323
327
331
348
343
341
345
352
298
555
422
354
360
363
376
389
406
409
406
382
351
345
347
354
370
354
355
352
359
302
544
418
354
359
367
376
389
400
403
390
366
339
327
329
340
354
338
333
335
337
280
542
396
332
331
339
346
364
376
378
369
341
317
312
309
320
340
326
323
327
328
272
570
399
328
333
338
347
361
378
380
375
343
311
309
311
313
327
316
315
322
325
259
576
381
321
327
336
345
363
377
379
367
337
315
313
322
333
326
325
327
330
314
427
420
340
330
337
346
361
380
390
389
369
331
321
326
329
340
332
334
339
339
282
571
405
343
349
358
368
386
400
406
395
364
342
341
342
361
355
346
352
352
336
466
417
364
360
362
370
383
395
405
399
383
355
337
337
350
350
340
338
341
338
311
458
386
338
343
349
356
378
386
384
366
335
314
316
317
336
322
321
319
324
295
483
378
321
316
320
329
341
358
363
358
333
304
293
299
302
317
306
301
304
306
250
555
375
304
310
317
329
345
363
369
363
334
308
301
306
317
320
314
312
317
321
285
475
359
321
324
336
349
369
379
383
369
338
319
319
323
338
331
327
330
335
303
528
407
337
343
345
357
371
386
390
389
363
332
325
328
333
341
332
333
335
333
274
541
392
336
342
350
365
376
392
391
387
353
333
336
334
350
348
341
346
352
336
448
411
371
362
366
374
387
405
414
409
385
355
342
342
355
362
352
350
345
350
292
565
413
345
351
357
363
379
389
391
377
344
319
308
311
323
329
318
317
317
319
277
481
363
317
322
329
340
359
370
374
359
323
305
302
307
320
317
313
314
317
310
371
415
338
324
326
338
347
365
376
376
357
322
314
310
304
320
313
308
313
317
285
489
394
321
320
328
339
353
372
378
380
360
331
324
327
332
347
341
341
347
350
295
605
428
354
359
365
378
391
407
411
405
379
349
340
342
346
353
342
342
343
343
275
568
399
334
339
346
355
366
377
377
369
339
315
309
309
318
321
313
313
319
315
269
457
364
319
320
325
336
347
359
359
351
319
298
297
297
319
313
302
304
311
307
334
377
338
313
316
325
337
356
367
364
342
316
300
301
306
323
320
311
314
316
308
387
386
333
316
321
328
339
356
364
362
345
313
301
300
304
324
320
315
318
322
316
356
411
342
325
334
343
352
370
384
386
373
339
324
325
325
342
344
339
343
346
344
328
458
380
350
354
361
373
389
403
405
392
358
337
337
338
350
360
350
353
356
359
306
564
430
364
370
378
391
407
426
436
431
399
378
372
377
380
395
385
379
380
382
356
522
433
379
377
377
382
393
409
411
402
379
347
331
325
324
338
334
319
316
315
309
264
447
345
295
295
299
307
321
336
337
323
287
264
260
263
265
284
276
267
269
272
252
385
344
281
273
279
285
300
320
331
333
315
286
272
274
281
288
304
296
298
302
302
248
526
382
310
315
323
329
346
365
373
369
344
321
315
321
329
342
347
333
343
342
341
310
462
379
340
346
355
359
373
389
390
380
345
328
320
330
336
356
349
344
349
352
321
516
414
354
355
359
367
378
397
403
400
375
346
331
331
338
348
352
343
340
344
343
286
548
403
339
341
350
357
374
387
394
385
354
328
320
322
328
341
339
332
335
338
339
282
529
393
341
346
352
361
377
394
398
391
357
332
327
331
334
348
348
343
342
345
347
300
506
392
346
353
360
367
384
398
403
390
360
339
338
338
339
354
357
346
346
350
351
307
502
402
355
361
364
378
390
414
413
405
374
348
340
343
345
364
363
349
350
357
356
325
479
395
350
358
364
373
391
409
405
388
354
329
325
326
332
347
339
332
332
333
332
302
468
372
329
333
342
351
367
382
381
369
337
314
306
308
310
326
326
313
320
318
320
270
505
374
321
330
336
346
365
378
382
369
342
315
312
312
319
330
331
322
324
325
327
270
518
381
326
334
340
347
364
379
383
376
347
321
315
317
322
337
335
325
329
333
335
292
482
378
335
341
348
362
379
396
402
393
360
341
339
340
347
365
358
349
355
357
344
439
424
371
365
372
380
398
414
425
426
404
369
352
341
353
368
375
357
355
352
358
303
564
412
339
341
342
351
363
375
381
372
339
309
297
295
298
309
311
299
303
305
304
242
525
359
299
302
307
319
332
350
358
347
313
289
279
287
287
302
296
292
296
296
271
457
370
300
299
304
312
322
340
347
350
324
292
279
278
282
296
291
286
291
293
290
292
400
323
297
301
310
321
336
357
356
343
317
300
305
308
329
324
323
333
339
340
328
446
387
351
365
370
384
400
418
423
406
377
354
356
356
382
376
368
370
373
368
384
461
402
371
378
384
397
416
424
427
406
368
352
348
348
366
362
353
357
357
354
353
489
383
354
358
367
379
398
412
414
399
366
347
345
347
359
347
344
346
346
322
475
422
339
333
339
348
359
375
383
382
360
325
310
312
320
325
322
323
322
323
252
594
389
323
330
336
345
358
373
377
368
339
313
308
311
324
319
316
320
324
285
530
409
327
330
338
348
362
378
389
389
368
338
331
334
349
345
340
347
351
349
352
476
382
356
362
369
379
397
407
408
397
358
343
340
348
349
341
341
342
341
290
482
383
333
335
342
350
366
371
374
359
331
309
304
315
323
308
305
311
308
259
468
369
307
315
323
331
349
363
362
352
325
299
298
304
312
301
295
297
298
247
478
350
293
298
303
315
331
347
345
335
303
283
286
289
304
293
289
293
297
243
537
372
305
311
315
327
345
361
365
359
333
309
306
311
324
316
312
317
324
261
579
391
321
327
335
346
361
379
384
376
347
323
325
330
341
331
330
337
338
291
535
390
339
343
353
369
386
401
400
389
355
334
334
342
346
338
341
346
349
345
479
384
356
363
371
383
396
401
401
388
353
337
338
351
346
341
344
346
311
542
425
354
356
362
367
382
397
404
401
376
348
341
343
360
349
350
353
353
284
614
420
345
351
360
370
386
399
402
394
367
341
343
344
354
348
346
350
348
300
528
391
347
355
361
369
385
396
397
383
351
331
334
343
340
335
336
338
320
444
429
344
334
338
345
359
371
377
376
357
322
309
307
318
316
306
307
308
256
547
382
302
302
309
319
334
349
354
351
326
296
294
297
312
305
302
307
312
237
588
384
312
317
328
338
351
364
368
364
338
316
316
318
330
324
321
323
326
266
510
380
329
335
342
356
373
386
392
390
362
341
344
352
359
349
349
350
352
332
426
395
349
354
362
373
384
388
387
375
347
329
333
339
353
337
338
338
336
321
430
382
340
350
356
366
386
392
390
373
342
327
325
326
340
334
323
324
325
267
529
392
328
332
335
344
363
376
381
372
338
315
316
317
333
329
323
325
327
286
537
404
326
331
337
344
358
375
381
377
350
322
313
311
321
325
319
322
327
312
425
417
343
336
341
346
367
384
393
392
368
335
325
323
329
336
327
326
328
329
321
449
365
338
340
351
360
377
392
393
381
345
326
324
332
346
337
334
341
336
287
515
400
334
333
346
357
375
391
390
381
349
321
314
321
335
330
323
324
321
289
504
387
320
320
323
332
349
367
371
361
334
304
297
301
301
316
307
302
308
312
249
536
365
310
313
320
334
353
367
371
359
321
300
301
307
320
321
313
317
322
296
481
403
329
324
329
339
354
374
387
381
355
324
313
319
321
333
327
326
330
333
284
531
376
336
340
350
364
382
393
396
384
352
329
331
333
347
342
338
344
346
285
621
425
345
350
358
366
381
396
400
394
361
334
328
332
340
341
335
336
340
317
486
423
343
338
345
352
367
384
394
393
372
336
322
325
329
336
325
323
323
325
285
458
369
326
328
339
352
368
381
379
372
340
323
325
331
343
335
334
337
338
284
538
408
342
346
353
365
383
396
399
390
365
341
336
333
355
346
339
336
342
314
500
399
340
336
341
352
364
382
380
380
352
325
315
316
323
333
322
323
324
325
274
523
375
322
328
332
346
364
378
385
368
333
320
312
314
330
328
324
327
331
281
566
407
327
331
337
345
361
379
383
376
348
318
311
313
323
324
318
323
325
303
448
414
329
326
331
342
355
373
384
381
358
327
317
322
328
333
326
329
331
324
378
442
348
333
339
347
359
375
386
386
367
332
319
323
329
335
326
330
333
328
344
457
358
335
339
348
359
376
384
383
369
336
322
323
329
336
328
328
329
328
325
462
358
331
336
347
358
374
385
384
370
337
324
324
327
339
331
332
336
336
282
532
379
336
340
351
360
376
386
388
378
349
329
331
334
347
339
339
341
345
295
498
391
343
349
357
367
382
390
389
379
348
334
335
339
347
333
334
340
343
309
448
384
347
348
353
369
385
393
397
385
358
340
338
349
352
342
343
337
340
381
402
366
343
344
352
363
378
384
378
357
327
309
309
319
324
311
308
313
305
360
400
336
313
320
329
343
358
368
365
345
313
303
304
314
320
311
313
317
303
412
410
331
320
327
336
351
367
377
375
356
324
311
317
328
323
318
321
327
279
565
409
328
330
339
348
365
381
389
385
354
325
323
321
339
330
329
331
336
266
591
403
338
346
354
364
381
399
399
390
360
337
336
345
355
345
346
346
345
331
453
379
346
352
361
371
387
396
392
376
345
329
328
338
345
337
336
339
331
377
410
357
340
348
354
371
387
397
394
377
346
332
329
347
340
336
336
339
306
503
398
342
339
348
357
375
387
391
383
357
330
317
318
336
330
318
318
319
274
496
382
310
309
315
323
335
355
359
355
323
297
286
289
305
300
292
297
299
271
467
377
305
306
310
321
337
356
365
364
335
306
300
303
317
315
308
313
320
294
478
395
329
327
333
346
359
378
384
383
353
320
312
314
325
330
323
324
329
322
390
415
348
333
341
350
362
380
392
396
371
339
329
327
336
348
336
337
343
341
298
480
391
346
351
362
371
392
407
411
396
361
342
343
340
363
352
346
348
353
304
554
421
351
355
363
368
390
406
407
397
368
340
331
335
343
352
339
337
338
336
289
487
384
335
340
346
356
378
392
396
377
345
326
324
326
341
346
336
339
340
335
379
426
355
336
343
348
362
380
388
389
366
333
315
313
315
326
329
319
323
324
321
333
431
348
324
329
337
350
365
377
377
358
318
300
294
294
297
309
295
290
291
295
235
476
349
293
294
300
312
330
347
353
341
309
287
278
285
297
314
305
303
305
314
256
529
383
318
324
332
348
366
382
391
378
347
321
312
313
320
334
334
326
326
328
318
402
402
345
331
335
345
358
377
391
390
368
334
319
316
320
324
341
327
323
326
325
263
556
387
316
318
322
333
349
366
374
367
337
307
301
303
305
314
323
314
318
321
321
281
470
367
331
334
339
347
364
386
395
379
342
326
321
324
326
345
339
335
336
345
314
498
414
353
354
361
370
393
413
424
421
398
368
351
350
351
368
372
356
356
357
357
320
508
408
359
361
368
379
397
407
407
394
355
336
331
332
335
353
346
338
341
342
306
518
412
343
337
343
355
368
388
398
391
363
333
324
326
329
339
341
331
331
335
331
333
463
359
332
337
345
362
395
361
395
384
336
307
316
326
326
333
329
327
332
331
287
506
361
333
338
344
349
365
377
380
372
341
327
326
331
340
344
337
341
346
343
360
438
368
349
356
366
375
390
397
395
383
354
337
337
335
350
346
342
345
349
312
493
405
337
335
341
350
361
372
377
374
357
332
323
322
322
336
330
320
324
327
272
502
380
318
324
336
340
354
368
362
355
323
303
287
290
305
305
295
300
294
289
318
349
315
293
300
303
318
338
348
350
335
313
297
296
305
325
316
313
315
320
288
501
395
328
330
337
347
364
386
395
389
368
341
324
321
328
338
327
331
338
339
280
559
400
344
350
357
375
395
407
408
403
371
352
349
351
369
360
354
359
363
339
492
428
364
358
363
364
378
392
396
390
366
332
323
327
331
339
331
325
333
335
282
554
414
336
342
351
365
375
393
398
394
362
333
327
326
323
328
319
318
323
322
259
517
380
316
324
332
341
357
371
373
366
337
312
310
312
327
329
322
320
323
325
349
405
355
330
340
347
364
382
396
394
376
347
329
332
333
351
346
339
338
341
332
436
415
351
344
349
355
369
390
403
394
370
338
327
325
327
340
335
331
332
331
293
515
410
326
324
325
334
347
364
375
371
346
314
303
308
312
320
309
305
308
312
238
593
377
314
321
330
340
360
373
379
370
340
317
315
318
328
329
325
328
336
322
444
426
355
347
354
366
385
405
411
404
381
348
333
331
337
345
332
331
333
334
276
512
385
331
335
338
345
358
364
362
348
314
289
283
282
298
292
294
301
310
256
516
389
314
314
328
338
355
367
374
368
347
320
315
320
332
328
322
321
329
301
484
385
334
332
335
348
366
380
388
380
360
336
324
324
341
341
330
331
332
326
396
402
345
331
334
342
353
369
376
370
348
321
307
311
316
333
316
316
318
322
261
557
385
327
332
340
351
368
382
387
373
341
319
318
323
340
328
324
327
333
270
582
406
326
335
342
352
368
383
391
383
356
331
329
333
344
343
333
339
337
313
495
420
346
344
347
357
375
391
399
395
369
335
324
325
331
336
329
326
328
330
317
471
360
328
334
338
354
371
383
385
373
342
329
331
334
345
339
336
340
341
271
590
406
337
340
348
358
372
385
385
377
346
323
321
326
335
331
330
328
333
308
495
417
343
343
352
360
371
390
398
395
374
345
334
339
353
349
339
346
350
340
382
411
368
350
354
364
376
395
402
401
383
352
340
346
348
364
357
348
348
351
287
580
407
339
344
351
360
374
392
388
378
346
320
317
319
335
334
322
324
331
316
432
417
337
323
330
336
348
365
373
366
345
314
303
307
312
321
310
303
309
306
254
495
344
297
300
304
316
332
348
347
333
297
281
284
286
304
298
297
304
307
238
576
370
302
306
310
326
344
358
362
351
323
299
300
306
318
309
310
313
321
257
581
389
329
339
348
354
365
378
380
366
330
306
302
308
321
312
308
311
317
250
539
384
316
327
333
344
362
378
383
373
348
322
330
331
336
332
333
335
333
279
524
403
337
350
359
373
392
407
405
392
363
336
336
341
350
340
332
335
340
276
548
399
334
339
347
356
380
391
393
383
347
329
330
333
350
343
337
338
344
276
597
411
340
346
354
367
383
401
404
392
361
339
336
338
352
349
341
344
344
309
544
429
342
346
352
362
377
396
401
396
374
349
339
332
337
336
326
328
330
312
431
413
330
320
319
321
328
344
349
345
324
290
281
283
289
303
294
294
294
287
288
433
315
295
301
307
319
339
352
355
339
308
292
297
300
313
305
304
308
311
237
555
364
310
315
327
343
364
383
390
388
360
343
340
343
356
352
351
358
364
309
611
448
365
369
373
387
399
413
414
408
384
359
351
349
361
357
351
356
361
330
512
418
363
359
363
375
388
402
403
397
376
345
332
341
343
348
338
335
336
344
323
460
386
348
352
361
378
408
412
409
390
355
337
331
333
344
343
326
324
325
292
490
397
322
319
326
339
354
371
370
365
339
311
300
302
305
317
304
304
304
304
235
555
355
299
302
309
321
344
355
359
346
314
292
292
298
312
308
304
310
314
267
557
399
316
319
325
337
353
372
379
374
347
318
312
317
324
333
327
329
334
335
292
540
372
336
343
353
368
389
402
402
392
359
343
345
349
363
360
354
357
357
305
611
437
348
348
352
359
374
390
394
390
362
332
325
329
331
339
332
330
333
333
295
513
367
331
331
338
353
374
383
382
373
337
318
317
317
326
322
314
316
321
278
503
396
317
317
323
338
351
366
365
366
347
316
312
315
324
331
324
319
325
325
295
432
380
330
341
347
361
380
389
391
378
354
336
334
338
355
345
342
341
343
303
525
407
340
338
344
350
368
385
389
382
355
329
318
320
331
339
327
326
330
334
277
554
387
330
337
343
360
373
387
390
376
344
328
328
332
345
338
333
337
343
282
595
420
336
343
350
364
381
395
403
394
360
336
326
328
341
336
331
338
342
306
534
421
340
346
357
366
377
397
399
390
358
329
320
321
334
331
322
324
327
308
441
411
340
333
335
345
361
385
387
388
362
332
325
323
344
337
332
338
339
322
451
402
350
340
344
358
370
393
399
393
368
335
323
325
341
340
331
330
334
327
369
411
349
329
330
335
351
370
380
375
351
319
308
310
316
326
320
317
320
322
263
545
375
323
328
334
347
364
379
379
363
325
306
308
311
324
315
314
317
320
251
597
387
319
327
333
348
370
387
392
379
341
317
318
318
334
326
325
332
335
273
606
412
335
335
341
353
374
388
393
383
351
324
323
324
337
329
325
332
335
276
600
417
335
339
346
357
376
394
398
390
362
332
328
328
343
335
334
337
338
279
611
417
338
345
354
365
380
397
401
396
365
339
334
337
352
347
344
347
347
308
530
423
335
334
338
346
359
375
378
372
346
313
302
299
312
307
302
304
308
265
490
391
304
307
317
325
337
353
353
357
327
298
293
290
304
295
294
290
295
238
474
364
293
296
306
316
333
343
345
333
306
288
281
296
305
297
304
312
317
264
493
381
319
325
331
341
356
366
372
367
338
321
322
326
339
331
324
319
321
256
561
388
318
324
331
344
364
379
382
370
341
320
323
331
343
333
333
340
343
285
547
408
344
349
355
368
388
404
407
391
360
340
343
348
359
350
349
346
351
297
521
402
347
352
359
371
388
402
400
382
348
329
329
333
343
332
330
335
335
293
495
387
340
346
355
366
383
396
398
381
349
333
336
342
353
343
341
346
348
301
510
398
354
363
372
382
402
415
418
405
372
354
354
360
371
361
364
364
364
326
500
409
367
371
374
395
407
423
418
403
370
349
344
352
361
347
342
342
343
316
451
394
346
356
360
371
389
401
404
384
351
329
325
326
336
324
319
321
319
258
526
378
304
309
318
339
357
370
368
354
325
300
298
304
317
313
297
294
298
273
442
378
302
295
302
308
322
344
352
349
324
295
283
288
295
305
302
303
311
311
296
455
348
319
322
333
342
362
376
376
363
331
315
318
321
333
327
325
331
334
265
611
407
335
340
346
358
376
394
401
393
364
340
336
340
350
356
353
356
362
348
468
460
370
367
372
380
396
412
421
421
400
365
354
354
354
370
362
358
359
363
290
608
422
348
353
357
367
381
393
392
385
354
328
322
323
333
333
324
325
328
315
395
401
345
328
335
342
358
377
384
383
363
337
319
325
331
343
327
322
329
331
272
520
404
337
340
339
347
360
377
376
363
346
325
320
325
340
339
326
324
326
321
378
407
345
320
322
332
342
360
369
363
345
313
301
300
308
322
320
308
312
315
267
545
393
311
316
324
336
353
374
382
377
349
315
311
317
325
334
327
326
332
329
330
477
360
330
338
350
362
385
397
394
376
339
326
325
330
339
332
330
333
333
278
552
377
330
335
346
358
376
388
390
375
341
319
320
322
334
327
328
334
335
274
564
376
333
336
344
353
373
387
389
376
340
322
322
325
333
326
329
334
328
350
468
353
334
341
352
367
385
397
400
382
346
331
333
344
344
337
342
347
302
576
428
338
341
343
351
363
377
379
377
351
318
312
311
321
311
310
312
312
237
551
353
296
299
307
316
332
340
341
333
301
279
279
288
287
281
285
289
257
479
378
291
289
297
306
321
337
343
344
325
293
288
290
302
294
295
300
303
257
478
345
306
310
321
335
352
363
364
352
322
309
308
323
317
315
321
326
253
622
401
325
331
339
350
368
380
379
376
348
325
323
334
335
328
331
339
295
556
424
339
343
351
360
379
390
394
394
372
343
344
350
359
352
355
359
351
407
444
380
365
369
378
390
400
405
403
389
361
355
350
362
354
348
352
355
317
459
407
360
361
371
383
398
401
404
395
363
350
351
365
353
350
352
352
304
520
419
347
356
360
370
388
396
396
384
356
334
328
345
343
333
338
333
315
472
398
344
335
341
351
368
385
390
383
357
330
318
322
335
327
324
326
330
263
548
384
325
329
334
347
363
379
381
369
335
316
317
324
325
317
316
320
273
540
396
319
324
323
337
356
370
377
374
348
318
317
325
330
323
329
328
326
389
391
357
338
349
359
372
395
401
400
377
348
338
345
351
342
345
348
346
314
487
389
347
358
368
373
400
403
402
378
359
336
339
363
354
337
347
344
301
569
390
344
343
347
359
372
384
390
369
341
314
316
324
345
328
316
321
323
271
545
370
316
321
327
339
357
373
373
356
330
313
311
322
344
330
328
328
333
268
547
385
327
332
341
354
374
387
389
374
343
323
320
327
337
333
325
330
325
374
435
345
328
335
342
354
379
381
381
357
324
310
314
325
329
320
323
325
266
550
415
322
324
331
339
360
378
383
372
341
313
310
312
329
324
322
324
327
260
524
401
333
338
346
361
376
389
396
382
344
322
324
328
341
333
331
333
330
313
440
368
331
332
339
352
368
378
377
358
323
304
306
316
322
311
312
312
297
429
398
315
324
324
333
353
370
377
378
354
319
313
311
324
321
313
317
319
261
540
403
316
321
328
328
345
364
371
361
328
298
293
297
314
300
299
303
305
271
422
348
305
311
321
330
348
362
360
342
308
292
288
298
308
299
297
299
280
416
384
308
303
307
317
333
352
361
361
338
309
298
301
319
315
311
319
323
261
549
404
331
339
346
360
379
394
399
390
359
335
335
341
353
345
346
352
348
353
450
385
358
364
374
387
404
416
412
394
360
346
343
355
358
346
352
365
316
531
435
358
359
367
379
393
414
415
414
381
359
353
338
362
361
360
355
360
294
572
429
355
355
363
372
387
406
399
394
360
339
329
328
346
329
333
336
340
270
531
397
335
340
345
361
379
387
394
382
358
327
331
333
345
335
336
339
341
271
549
397
337
344
351
359
378
390
393
381
351
329
331
331
344
340
336
342
344
283
521
402
343
350
357
368
383
393
393
381
352
328
325
325
335
324
318
319
318
257
465
365
306
307
314
323
337
348
349
336
308
284
281
285
294
287
285
289
288
242
439
352
291
295
308
314
338
349
357
342
317
301
295
300
320
305
300
305
308
250
474
368
295
300
308
320
340
351
350
335
308
287
285
289
311
308
304
306
307
246
560
396
309
314
321
331
351
369
373
366
341
310
313
315
331
325
320
325
327
258
586
410
328
334
344
356
375
395
401
393
362
343
346
347
362
351
350
351
357
294
586
418
359
365
372
383
403
415
417
401
368
346
349
356
356
347
347
352
332
459
443
354
347
353
361
375
393
396
394
368
337
331
328
344
339
333
333
336
276
565
416
328
332
340
349
363
379
383
372
343
321
319
325
335
330
326
331
333
296
462
378
340
339
349
363
383
395
392
378
351
338
338
351
352
342
345
350
321
507
414
358
359
362
370
388
407
415
408
382
356
349
353
373
362
351
352
358
306
572
429
354
353
361
367
385
401
405
387
359
334
329
327
341
328
323
327
327
264
561
387
321
323
335
345
365
379
378
367
333
315
313
316
331
324
320
322
324
257
588
387
325
326
335
347
362
381
382
369
339
316
315
317
331
322
318
324
325
268
543
372
322
324
332
343
365
372
375
358
322
306
308
312
321
313
312
315
316
288
493
349
316
320
329
344
359
373
372
351
319
306
310
315
322
314
316
323
313
368
448
338
323
331
343
357
374
384
380
362
329
319
322
331
334
327
329
333
311
479
429
337
338
345
356
364
380
386
386
364
336
329
331
342
339
335
336
337
300
547
424
336
335
343
353
370
380
386
383
359
333
326
329
333
338
329
331
335
321
430
440
351
338
344
354
366
381
386
387
367
335
327
329
333
342
333
332
334
331
353
458
358
333
342
350
363
378
384
379
364
335
324
326
329
341
330
330
329
329
302
493
363
328
332
343
352
367
375
372
361
331
319
321
322
336
325
323
325
328
284
506
367
328
333
341
352
367
373
371
361
331
316
319
323
337
326
324
327
331
266
552
381
333
337
344
355
369
376
377
366
338
322
325
326
343
332
330
333
334
256
603
395
330
336
344
355
373
381
378
369
343
324
323
328
344
336
330
334
334
280
608
420
339
344
352
363
379
389
388
386
363
340
336
342
349
350
342
345
348
319
508
432
349
347
349
358
371
383
386
382
360
331
324
328
332
336
327
327
329
317
404
425
338
327
329
339
349
360
361
355
341
311
301
300
310
316
309
311
312
311
311
371
348
321
330
341
356
369
375
370
361
332
318
320
334
336
326
324
326
327
363
380
358
331
341
346
362
378
381
375
355
327
316
320
330
327
316
311
310
312
298
411
346
310
316
325
340
356
367
363
343
314
300
304
309
324
314
313
316
317
253
551
372
318
324
333
344
362
376
377
361
330
310
316
319
330
323
325
329
334
264
593
389
330
339
346
360
378
393
392
378
344
329
328
332
347
337
337
340
342
286
601
420
339
344
351
356
374
392
395
388
356
330
328
331
337
340
334
337
340
333
394
448
354
339
345
355
367
382
393
390
365
335
328
328
333
346
338
337
343
346
302
485
398
355
360
372
382
403
415
413
393
363
349
347
350
363
352
342
348
345
289
559
412
343
350
353
363
382
395
392
380
352
332
326
332
340
347
335
330
333
330
322
439
363
329
332
338
353
369
377
373
352
320
306
303
305
321
321
312
315
318
299
432
398
325
316
323
334
348
368
378
373
348
318
308
311
312
328
325
320
323
328
307
444
411
337
331
336
344
361
380
388
383
361
327
320
319
322
334
338
329
333
334
334
311
491
373
338
345
352
364
384
395
393
374
341
323
322
325
327
347
337
332
334
336
310
484
415
337
334
337
348
363
383
388
384
359
326
315
316
320
321
337
329
326
329
331
267
601
402
331
334
341
351
368
384
388
380
349
322
317
319
324
328
339
329
328
330
332
266
567
387
328
333
344
347
367
386
386
374
345
323
318
320
322
324
339
332
328
329
332
267
573
400
333
334
343
352
372
388
388
379
353
333
332
331
332
335
357
351
345
348
355
298
560
419
350
356
360
374
393
401
403
394
367
340
333
329
336
351
356
340
337
343
341
300
475
383
334
342
349
359
380
389
387
369
338
321
312
312
318
334
329
317
319
318
317
292
459
361
318
324
332
341
363
377
378
359
330
305
303
307
318
322
328
320
317
320
332
275
518
364
320
328
333
347
369
380
381
369
336
315
316
310
317
333
333
325
331
329
328
337
468
357
336
337
346
361
379
389
391
371
335
321
315
321
321
340
336
328
331
333
328
361
448
350
333
338
349
361
384
390
389
371
344
325
324
328
331
343
342
336
338
344
335
374
423
366
347
357
365
379
397
410
408
393
363
346
344
348
350
369
358
350
353
357
319
546
414
357
355
364
374
385
403
403
396
373
344
329
329
338
345
353
341
332
337
338
270
558
398
327
332
337
341
361
378
382
370
339
313
311
302
314
325
333
317
320
322
323
259
577
376
320
324
328
339
357
376
380
366
334
308
306
312
313
325
325
319
318
325
318
364
436
340
324
329
336
351
371
383
380
361
325
310
312
315
320
329
324
321
326
326
264
594
395
321
326
334
346
361
378
382
373
343
315
313
315
316
327
331
329
326
335
337
283
505
374
334
336
345
355
375
393
395
379
349
328
326
331
337
349
341
338
344
341
297
546
415
343
349
352
368
376
397
400
397
365
340
333
331
335
354
348
340
339
345
343
319
457
376
334
339
344
357
373
386
385
367
331
315
310
315
316
335
330
320
327
323
311
393
410
337
325
327
340
354
372
381
383
358
326
314
308
318
324
336
327
331
332
334
278
585
403
331
332
339
349
366
381
391
384
355
323
320
319
324
334
336
330
332
336
335
292
520
372
337
336
346
358
379
391
391
382
336
321
322
324
325
338
335
335
332
337
294
546
417
336
335
342
350
365
383
388
384
361
327
318
323
322
330
337
327
330
333
337
270
568
382
333
336
342
357
369
379
383
372
340
320
316
320
321
338
334
327
329
330
310
445
422
338
333
337
345
358
378
385
380
362
331
319
319
320
325
337
329
326
327
332
275
581
411
327
333
338
344
359
376
377
374
352
330
317
323
321
338
335
326
331
333
331
356
397
364
338
344
349
366
383
398
388
378
348
332
332
334
351
347
336
337
342
335
311
472
382
334
340
346
360
378
393
390
373
339
321
318
325
332
339
334
330
333
337
270
599
403
333
335
341
350
373
389
393
382
351
323
322
327
329
340
330
329
331
332
264
629
403
326
333
340
353
371
388
394
384
351
326
323
325
335
335
328
332
335
338
271
590
383
336
341
347
360
376
391
394
381
344
326
327
330
341
339
334
337
339
333
345
483
353
329
334
342
353
373
383
383
366
330
315
316
319
332
322
322
324
327
297
511
421
327
325
331
341
356
376
383
380
357
324
314
318
321
335
327
323
326
330
280
586
411
328
330
337
349
365
383
390
387
359
326
321
326
330
337
328
329
331
332
271
600
408
329
332
340
350
369
385
384
380
356
329
329
328
337
343
335
336
340
344
287
544
414
343
348
358
371
386
401
405
394
364
347
338
340
351
346
329
332
333
334
289
513
387
335
340
346
358
380
391
390
376
345
328
320
324
337
338
329
329
329
331
272
548
386
328
329
338
350
370
386
385
374
340
318
312
319
329
335
323
320
326
326
264
592
389
321
325
331
344
363
381
386
378
342
315
312
317
324
331
322
322
323
328
261
616
389
321
327
332
343
360
377
383
372
338
312
308
315
318
328
320
320
324
324
267
604
401
324
328
336
346
364
381
388
384
353
325
319
326
329
344
334
332
334
340
282
574
413
333
343
347
362
376
400
402
395
367
345
334
339
348
352
339
340
344
345
289
543
404
347
347
357
366
382
399
401
387
360
336
330
337
348
353
338
337
338
341
282
559
396
335
336
343
352
369
385
387
374
341
317
313
318
320
335
323
321
323
325
272
563
391
318
320
326
336
355
375
381
377
346
313
307
312
315
328
319
319
322
323
280
557
403
326
329
331
341
357
380
386
380
352
318
313
317
319
333
323
322
326
329
272
606
400
322
327
333
342
358
378
384
379
347
318
312
316
320
331
323
320
325
329
270
616
404
327
332
340
348
366
382
389
384
356
327
323
329
332
343
335
335
340
344
285
629
420
342
345
352
364
379
395
398
393
368
337
332
334
335
349
341
337
342
343
300
570
421
337
336
342
350
364
382
385
380
358
326
316
317
320
335
327
327
326
330
312
433
403
338
332
331
342
357
377
382
379
360
334
318
321
324
340
326
321
330
333
302
491
385
335
335
340
349
371
385
385
377
359
332
319
325
328
346
334
329
332
336
303
488
393
338
332
338
348
361
381
385
380
354
323
311
314
317
336
326
320
322
321
312
413
419
336
325
331
336
354
371
381
379
358
323
317
318
319
337
328
325
327
331
296
529
413
333
334
340
350
365
384
389
388
362
330
323
328
335
339
330
332
334
337
266
611
396
337
340
346
359
375
392
391
379
344
323
323
327
340
336
331
331
334
320
428
435
344
336
339
349
363
379
389
388
367
332
321
326
328
330
324
324
327
333
267
598
390
329
335
339
351
364
376
375
365
337
314
314
318
329
325
316
317
325
312
412
388
336
331
342
343
357
381
389
390
371
342
325
330
342
341
325
334
338
339
297
476
389
337
344
352
365
383
395
388
378
353
332
330
332
350
340
336
336
339
317
466
402
345
340
344
355
368
387
395
387
361
330
320
325
330
339
330
327
330
319
268
591
394
323
331
336
342
358
378
380
376
345
317
312
318
327
327
319
323
329
320
351
454
346
327
333
345
359
375
387
388
365
328
317
321
323
327
321
321
329
327
265
564
391
327
333
340
355
369
384
391
384
357
326
330
330
345
333
330
332
338
294
534
397
339
341
347
356
372
390
394
386
364
333
323
329
343
339
331
331
335
333
320
443
369
332
337
346
357
376
388
383
370
336
312
315
321
339
327
324
328
326
281
538
401
327
332
337
345
366
379
386
381
354
324
317
320
329
335
324
327
329
331
284
521
374
331
340
347
358
374
389
392
377
345
324
327
326
340
333
332
335
336
287
570
408
336
340
346
355
372
390
398
394
367
336
331
336
347
348
337
340
340
335
394
434
357
347
349
355
367
388
393
389
373
338
324
325
333
339
328
326
328
332
277
499
378
330
336
339
354
368
381
379
368
340
314
311
319
327
318
308
315
319
261
498
379
312
320
325
335
355
366
368
356
329
302
306
304
325
319
311
314
321
288
501
379
326
327
335
349
362
376
386
376
353
323
318
319
331
341
326
327
335
337
278
554
391
339
344
357
365
373
387
396
383
352
332
327
330
342
334
325
328
331
287
562
403
330
337
338
347
366
382
389
386
360
324
328
319
336
336
328
333
333
330
373
434
354
339
343
349
364
390
390
397
379
346
330
334
341
348
341
341
346
344
278
564
400
346
350
354
363
385
396
397
384
354
333
331
329
337
337
329
333
333
293
514
388
328
337
351
355
370
388
382
383
360
317
321
330
328
329
324
330
322
323
384
382
342
322
329
334
350
371
380
379
357
328
315
317
316
338
321
318
324
326
263
559
397
324
324
331
339
362
373
378
370
341
316
310
313
314
325
315
318
316
317
293
485
359
324
329
335
347
369
378
382
364
333
312
314
321
336
325
324
328
330
272
603
404
331
338
345
357
368
386
394
392
361
336
327
334
347
345
337
339
343
326
439
440
349
348
353
357
373
392
398
397
383
347
338
340
344
357
346
343
346
344
276
644
409
344
348
353
366
378
393
398
391
357
335
331
330
340
339
333
330
337
325
359
427
353
337
337
346
361
372
383
376
364
334
320
321
324
336
323
321
320
325
274
503
397
327
336
342
355
363
379
385
369
341
315
313
310
329
330
311
312
310
312
305
402
349
320
323
332
345
362
374
370
347
324
303
302
302
317
320
309
310
311
308
294
446
351
314
328
331
346
364
377
375
362
330
318
317
323
333
341
330
334
335
332
309
478
374
340
347
355
368
382
396
398
383
349
333
335
338
352
349
343
342
346
349
296
527
387
345
354
361
372
388
399
402
388
358
339
333
336
344
346
339
337
342
341
285
522
390
344
353
361
367
390
398
392
379
342
322
323
324
338
339
328
326
329
337
274
491
385
341
336
350
360
379
396
398
394
353
332
323
335
347
344
339
341
341
343
289
495
400
337
344
353
364
383
396
394
384
357
335
328
329
340
347
337
327
326
331
277
503
396
322
326
330
341
357
376
379
375
344
319
311
315
315
333
331
321
321
324
319
312
445
352
326
331
339
355
368
381
380
365
334
314
317
320
329
342
327
326
329
331
285
537
421
338
340
347
358
372
388
393
387
364
339
327
329
333
351
344
338
339
341
336
342
456
370
345
352
361
371
390
396
395
378
347
332
327
329
341
348
332
334
335
334
278
536
415
332
340
343
355
369
380
385
379
354
326
322
323
326
346
337
330
332
336
331
334
452
366
338
347
352
366
380
392
389
375
342
328
325
331
335
338
329
328
331
334
300
500
427
341
342
347
354
367
384
396
394
371
345
333
331
335
348
347
334
334
334
340
284
514
398
337
344
353
361
384
397
396
386
358
333
322
328
335
353
338
331
332
331
325
375
402
351
331
337
342
358
374
385
381
364
335
319
313
316
324
341
323
319
320
323
287
478
401
324
322
330
340
353
371
380
380
358
328
314
315
320
323
342
328
323
324
326
291
492
406
329
330
336
343
356
371
383
382
360
328
319
320
324
335
340
328
328
329
324
268
535
374
327
336
342
354
369
382
385
377
348
322
320
326
326
343
333
330
332
333
301
514
416
337
335
347
352
363
381
385
387
368
336
330
329
332
347
340
333
334
336
329
360
437
354
336
338
351
362
375
387
392
374
345
328
327
326
343
340
328
333
333
336
304
457
375
336
343
349
359
372
386
385
375
344
327
321
322
341
334
324
332
330
327
327
400
359
331
336
344
360
374
385
380
365
336
319
320
322
341
331
326
324
328
326
361
408
364
342
346
354
369
384
393
388
370
343
327
328
335
349
344
339
338
335
330
374
440
355
338
342
350
360
377
391
384
372
342
323
329
326
344
333
328
330
332
285
541
413
328
336
342
351
365
380
385
384
356
326
319
326
334
337
328
330
333
330
280
547
367
328
331
342
353
370
381
383
371
339
319
321
323
334
326
323
326
328
286
556
403
325
332
336
344
359
373
376
379
352
326
316
318
325
330
321
321
326
326
259
573
374
326
333
342
351
382
377
383
355
342
326
314
325
325
337
323
319
332
315
321
429
346
322
330
336
353
367
374
378
366
340
325
325
325
341
334
325
332
337
310
486
395
345
346
350
354
372
390
396
389
371
343
334
329
341
353
339
339
337
336
285
539
396
334
341
348
358
375
389
391
384
354
332
326
330
336
346
332
328
331
333
269
563
390
325
332
339
350
366
381
385
374
344
320
318
322
331
339
327
328
329
328
268
569
376
333
333
342
352
368
381
386
374
341
315
318
329
332
330
331
326
331
320
377
439
341
334
339
348
359
381
385
384
367
330
316
317
318
331
325
323
327
329
281
561
402
333
337
342
352
368
384
393
389
365
336
328
330
341
346
334
332
334
340
285
511
391
339
346
348
364
379
395
396
382
355
331
323
326
348
337
330
329
332
306
482
386
336
334
340
347
369
383
390
387
360
333
319
323
330
344
334
327
329
329
272
569
397
328
334
337
347
364
381
388
380
349
320
317
323
323
335
327
324
326
327
263
574
378
323
327
337
344
362
379
383
374
340
317
314
318
330
326
320
321
326
319
376
425
343
329
333
343
352
374
384
387
367
335
320
318
322
339
333
326
329
330
301
495
404
334
336
343
349
365
383
388
384
363
329
318
322
323
337
329
323
326
333
285
535
403
327
333
338
347
361
378
387
385
359
329
320
321
327
342
332
328
330
332
280
528
398
334
341
345
360
371
389
393
388
360
331
323
325
334
351
333
324
330
335
284
544
399
334
338
347
358
372
393
394
389
361
332
321
322
326
347
337
329
332
334
312
469
396
337
335
341
345
360
378
388
383
361
329
315
317
319
333
333
324
325
328
326
315
441
352
326
330
339
353
371
387
389
375
339
316
317
317
330
337
326
325
328
334
282
511
386
338
343
352
359
384
399
403
389
355
336
330
331
339
352
343
332
339
344
285
555
401
340
345
350
361
382
401
401
392
360
334
326
328
332
348
338
333
336
336
311
494
394
339
338
341
351
367
385
394
391
367
332
325
319
325
336
338
326
327
332
327
329
448
357
331
337
344
358
377
391
392
373
341
318
318
320
326
333
326
325
329
332
268
562
385
327
333
337
350
367
384
389
376
345
318
316
318
321
338
325
323
326
330
277
553
400
329
335
341
351
368
384
390
384
358
329
322
324
329
342
343
335
334
338
332
355
422
356
341
344
355
366
385
396
399
380
349
328
324
327
337
345
334
334
335
341
294
497
385
340
342
350
363
382
395
395
384
353
330
322
327
332
351
336
329
331
336
298
517
392
334
336
339
349
364
382
388
382
359
326
315
313
317
328
332
316
317
322
323
296
465
355
321
326
333
349
367
381
386
370
337
315
315
319
326
340
327
326
331
333
268
583
389
331
339
344
354
371
388
393
385
355
328
321
323
328
340
333
329
332
327
274
584
396
327
331
344
352
369
389
393
388
357
331
325
327
327
338
331
328
330
335
271
538
400
334
340
348
354
371
390
388
383
350
326
316
321
339
336
324
323
329
330
313
438
369
331
339
345
356
376
391
390
373
339
319
318
321
333
338
328
329
330
330
308
475
361
330
334
343
352
370
384
384
371
341
320
317
318
332
327
321
326
329
317
407
405
342
332
338
343
356
373
383
382
365
333
319
320
322
342
335
330
335
335
297
535
405
335
345
347
359
371
393
397
396
373
338
327
332
340
344
331
337
338
341
289
515
403
337
344
353
363
379
396
393
383
354
331
325
327
341
337
325
326
332
323
376
406
351
331
336
342
355
372
383
380
358
328
310
313
311
327
318
315
314
315
273
504
386
312
312
317
327
341
359
366
361
336
303
295
299
304
312
305
307
313
313
244
547
367
311
321
329
339
361
376
381
377
339
318
325
322
325
329
324
325
336
323
414
418
348
337
347
354
369
388
401
400
384
349
340
342
348
363
356
337
343
357
292
551
412
347
355
361
372
391
406
411
402
372
350
340
359
356
351
346
344
348
349
311
482
391
345
352
358
372
392
403
405
388
354
329
329
334
339
349
330
337
335
324
294
490
368
324
333
341
351
367
382
383
370
337
319
316
318
326
330
321
324
321
319
323
449
345
324
327
334
345
368
381
383
366
331
319
314
325
325
332
322
324
326
300
476
405
330
327
334
340
359
375
388
380
362
330
316
319
327
335
321
325
326
328
263
609
397
327
333
340
351
368
385
389
386
357
332
324
324
332
341
329
331
335
334
320
455
364
338
342
352
364
383
395
387
381
348
327
326
332
345
333
324
329
333
296
520
399
337
346
350
364
376
392
395
393
369
341
329
336
346
350
334
337
337
335
305
447
380
337
343
350
364
379
391
389
376
341
328
317
318
332
332
319
321
322
312
362
407
338
321
328
332
345
364
373
371
351
321
307
305
308
326
314
305
309
314
268
541
377
313
318
330
337
352
375
376
371
346
321
310
317
327
328
324
323
325
326
285
478
365
328
337
345
355
374
388
388
377
345
324
326
323
342
334
326
328
332
302
514
404
334
344
342
353
370
391
399
400
375
343
334
337
344
351
338
336
342
346
287
520
404
345
351
357
365
386
399
399
392
354
330
326
332
345
347
336
339
335
342
315
446
377
343
348
355
369
385
398
396
377
344
334
323
335
338
348
339
334
336
333
296
509
368
331
336
344
356
372
387
387
372
338
317
313
319
326
330
323
323
326
318
364
439
332
317
327
332
342
360
370
372
352
317
303
305
300
314
303
295
298
303
249
530
385
293
297
301
310
326
340
352
348
325
293
285
287
298
305
300
299
304
308
256
463
375
315
326
329
346
367
380
387
381
351
333
329
335
353
345
330
331
339
320
465
395
350
347
353
363
380
398
408
404
378
350
336
339
341
356
345
341
345
348
296
574
417
342
343
348
359
374
393
397
392
365
337
328
330
334
345
336
334
336
334
267
621
402
333
338
345
356
372
389
395
387
353
326
322
325
334
338
330
334
335
331
355
462
357
335
343
351
363
383
394
397
382
346
328
330
329
346
336
330
335
334
271
605
408
333
338
344
354
368
383
386
379
351
322
316
318
326
330
325
327
329
326
327
443
355
334
333
346
359
372
394
392
380
354
332
328
334
347
338
334
341
342
283
535
408
340
349
355
366
379
394
395
385
350
328
320
325
343
333
325
329
329
297
505
400
331
328
334
339
359
371
376
367
343
314
303
306
312
321
312
310
311
314
259
515
366
311
317
322
335
353
369
371
361
327
305
308
311
326
318
315
318
321
257
602
398
321
331
339
350
365
380
385
379
350
320
318
319
330
321
322
324
328
264
606
401
321
326
330
343
359
378
380
375
346
313
308
313
322
315
313
314
316
248
568
391
316
322
328
340
358
372
376
368
337
314
314
320
329
325
321
328
334
272
529
398
338
342
352
368
383
401
403
399
364
344
341
357
358
340
338
340
339
387
413
376
338
355
363
379
395
411
389
382
348
337
340
351
337
336
336
342
310
509
402
341
335
349
349
363
379
387
379
362
324
314
316
335
326
321
325
323
271
557
394
321
328
330
331
358
374
380
371
344
315
296
311
322
320
309
313
316
263
501
372
319
320
335
337
358
376
377
365
332
310
310
319
323
306
317
316
279
533
409
318
324
337
337
354
370
386
378
354
319
320
330
322
314
319
326
314
367
430
342
326
335
348
357
374
379
386
360
327
313
321
335
321
321
326
328
276
506
380
335
339
345
364
390
393
390
374
343
325
318
342
342
318
334
330
263
525
397
332
331
339
351
383
390
389
384
343
335
325
343
332
333
329
337
288
555
425
342
348
358
365
384
404
404
401
377
352
351
364
369
353
355
350
326
507
411
359
354
362
376
378
396
410
389
356
341
331
347
352
339
328
337
335
390
422
357
336
339
346
355
376
385
376
356
334
329
324
335
336
319
324
321
284
554
385
327
315
330
345
358
366
378
372
341
307
302
314
323
313
313
307
306
311
424
340
321
315
331
342
363
366
375
358
314
304
293
322
305
300
297
298
244
464
346
298
300
316
327
353
366
367
347
320
293
298
322
307
305
312
310
257
532
389
321
332
342
359
383
396
397
388
357
334
332
349
347
327
332
336
290
572
402
339
337
354
365
377
398
410
393
373
338
333
342
345
332
337
331
320
478
377
334
330
339
332
340
364
359
353
330
296
278
290
296
279
274
277
273
262
432
309
267
283
290
290
325
330
329
312
292
275
293
316
320
306
312
322
275
559
373
322
323
329
340
357
385
366
363
342
332
324
328
345
324
317
318
319
338
437
339
318
316
323
334
358
362
359
342
310
300
306
316
309
300
306
307
235
600
369
306
317
325
338
352
372
376
363
336
316
319
330
329
318
324
328
283
568
395
342
346
356
372
394
414
419
411
384
357
356
362
376
367
361
366
367
363
472
402
370
380
390
401
419
426
424
405
372
355
351
366
361
348
342
340
288
542
404
335
334
342
348
364
380
381
370
338
309
301
301
317
307
297
298
300
253
469
361
312
317
321
335
353
365
362
345
316
299
300
301
320
311
307
305
307
263
468
344
299
302
306
320
335
331
323
309
282
272
277
279
296
286
276
279
285
227
493
342
290
296
305
319
342
358
359
349
316
299
298
303
318
315
308
315
321
253
579
380
313
315
324
342
356
377
378
369
341
317
317
319
329
330
320
322
328
272
555
400
323
331
338
351
368
385
389
379
352
326
319
324
336
341
331
332
335
299
515
412
340
342
350
362
378
400
402
398
372
342
333
334
342
350
337
336
339
323
440
400
349
341
346
354
366
384
392
388
362
334
322
320
326
338
325
326
327
325
344
393
360
334
343
353
369
388
400
398
380
351
334
336
339
358
343
339
342
342
298
482
386
338
343
350
360
379
391
389
370
339
321
319
319
337
333
319
322
327
277
533
391
328
335
340
351
372
389
391
378
352
327
317
319
333
335
322
330
333
292
519
394
333
338
346
353
372
388
396
388
359
334
324
334
335
345
330
335
338
327
446
401
359
353
363
374
392
412
422
420
397
368
356
355
364
375
367
358
362
365
335
470
396
364
371
374
384
406
414
410
389
358
340
332
333
348
334
327
325
329
273
558
387
323
325
330
338
353
371
375
360
336
303
301
303
310
316
307
307
307
300
355
388
318
304
312
323
340
358
365
359
336
298
285
283
284
299
288
286
291
291
223
533
348
287
292
297
308
326
341
344
336
301
279
272
278
287
297
288
290
296
290
379
390
322
314
322
332
347
367
379
379
365
334
323
325
329
344
339
334
338
343
284
610
423
353
358
365
376
392
410
415
410
382
352
345
345
345
354
345
343
343
341
303
499
370
335
336
345
358
373
385
385
373
342
322
315
317
329
324
316
320
326
291
554
425
360
367
374
384
392
405
413
404
382
349
333
333
331
342
335
330
328
326
259
564
384
322
326
331
343
357
367
363
351
322
295
284
284
297
302
291
295
299
300
317
380
339
313
325
331
340
361
372
368
358
330
318
317
324
339
338
327
330
336
290
534
403
336
336
343
352
367
383
385
375
354
327
315
317
324
330
317
313
315
313
265
486
360
313
316
321
333
351
364
361
346
314
293
289
294
304
305
293
291
295
285
352
375
312
298
304
312
326
349
357
357
347
315
300
303
306
325
321
319
324
329
280
561
410
344
358
366
370
393
415
424
411
385
357
347
351
364
364
351
350
353
343
407
409
365
349
353
361
375
397
400
397
371
342
325
326
330
349
338
330
333
334
277
590
402
335
341
345
356
377
395
403
389
360
334
329
333
345
345
340
344
349
344
417
429
365
351
362
368
382
406
412
409
383
350
338
336
338
350
344
337
343
344
277
580
403
337
337
344
356
366
388
386
373
339
313
305
310
324
322
314
317
323
309
448
411
331
328
327
337
349
376
379
382
357
321
315
316
322
336
328
320
329
334
286
498
387
335
341
354
372
390
403
404
392
358
345
339
343
356
354
341
336
337
298
519
410
324
322
325
332
352
372
377
367
338
303
293
298
304
311
302
303
305
308
267
489
352
310
315
321
337
359
371
370
351
320
299
303
304
322
312
309
310
312
262
560
387
311
319
324
337
356
377
382
377
345
315
312
322
325
335
323
326
331
328
330
455
361
327
332
340
353
373
389
384
367
335
319
320
325
341
333
329
333
338
285
589
418
338
343
353
365
381
403
405
400
374
344
339
344
350
358
345
344
346
347
304
520
386
341
346
353
364
382
395
396
377
346
325
323
325
338
336
326
328
327
308
431
412
335
327
331
336
352
368
373
368
345
313
298
302
301
316
306
300
302
305
261
496
381
300
302
310
321
336
351
364
365
344
328
318
320
329
343
340
337
340
340
288
506
400
337
346
352
354
375
384
382
365
332
309
300
307
319
330
318
319
320
321
294
430
352
317
321
326
344
363
379
372
350
317
304
305
312
326
329
321
329
329
324
369
425
357
339
343
352
365
382
392
390
365
335
318
318
319
335
331
328
334
341
308
509
419
345
347
353
372
383
405
413
410
384
355
347
354
362
369
363
367
372
372
334
514
425
374
385
391
407
428
441
440
422
392
375
376
378
392
386
376
378
379
337
570
445
371
371
374
378
391
407
408
401
370
339
328
331
333
340
324
328
324
324
300
455
353
315
318
325
339
358
368
367
348
315
297
299
304
311
299
296
300
299
243
508
361
298
305
311
324
343
358
359
344
311
291
290
298
315
308
305
311
313
254
526
374
317
324
331
342
361
376
381
367
334
313
316
321
331
321
322
324
327
287
493
368
327
336
343
357
374
386
387
373
340
322
322
332
335
326
329
336
327
380
435
358
346
348
356
373
390
401
398
380
344
339
337
349
337
335
336
340
294
542
418
343
349
355
365
385
404
403
398
368
344
340
345
358
347
343
343
345
280
559
404
338
339
347
359
377
392
391
378
346
326
321
327
339
330
324
328
331
266
551
387
330
335
344
357
378
391
392
380
345
326
327
328
341
327
329
331
332
284
518
376
332
338
349
361
378
390
391
377
342
325
326
332
338
327
327
332
325
365
441
352
333
339
346
358
378
385
381
364
333
319
321
333
334
326
325
327
303
475
415
334
333
339
346
361
378
382
380
355
330
321
326
338
333
330
333
339
302
511
412
340
348
358
369
382
400
410
404
385
361
354
356
371
373
362
359
365
352
474
415
369
362
368
376
389
405
407
399
373
342
327
328
341
342
327
320
321
316
359
389
337
313
317
326
336
357
360
358
333
303
287
292
294
311
298
293
296
301
236
524
355
296
302
310
321
345
358
358
346
313
297
296
299
315
311
303
306
311
272
512
386
314
318
326
335
355
372
380
373
346
317
309
311
320
329
319
317
323
316
340
426
345
320
327
335
350
369
381
377
356
324
310
313
314
329
320
317
323
327
257
575
393
326
332
338
351
370
387
389
380
348
327
326
327
340
341
332
337
341
307
511
420
344
348
355
362
378
396
399
399
373
346
339
339
345
360
349
348
352
351
308
480
401
350
356
366
377
395
409
407
392
361
345
341
343
362
361
347
348
351
330
486
412
355
352
358
370
383
404
408
399
370
344
330
329
334
348
339
327
331
329
282
546
396
320
325
330
343
359
379
384
374
347
320
311
310
313
330
325
316
320
321
264
576
395
318
323
332
345
362
381
384
376
343
