348
358
377
403
421
428
417
373
334
322
319
322
324
332
342
335
333
340
343
343
282
550
461
341
344
355
361
381
404
430
445
441
409
363
336
336
336
342
346
356
351
346
346
349
354
295
554
477
349
350
356
365
381
402
427
440
440
407
360
340
334
335
338
345
352
346
346
349
352
354
295
551
470
350
352
353
361
380
400
421
433
428
398
350
329
327
328
329
335
339
335
332
338
344
342
267
557
445
340
343
352
363
379
406
425
437
429
393
347
330
329
334
339
351
347
345
345
345
349
337
400
470
369
350
352
359
370
394
416
434
437
413
363
335
329
328
331
335
347
339
341
343
346
350
315
489
474
356
351
356
364
376
397
418
435
439
411
364
339
335
339
335
340
347
342
343
340
346
345
277
539
447
341
344
346
357
370
394
415
424
426
386
338
318
314
317
322
336
332
329
329
335
333
335
266
510
409
330
336
347
360
376
405
424
435
426
379
340
324
325
330
337
352
342
343
346
349
351
311
508
463
353
349
352
366
377
400
422
435
436
406
358
332
327
326
332
338
344
340
343
345
347
349
272
562
445
345
348
354
364
376
401
425
435
430
393
350
330
331
329
326
338
337
332
338
339
338
338
263
517
407
334
336
342
360
374
395
417
425
417
373
325
317
317
320
321
331
338
330
328
333
334
336
270
570
451
340
342
356
365
384
408
432
443
440
401
354
336
331
334
338
344
350
344
344
348
351
356
276
553
420
348
349
358
369
383
410
430
438
428
385
344
334
331
332
328
338
341
335
334
337
335
335
280
482
384
336
340
349
363
378
410
423
429
412
365
324
321
317
325
326
342
339
339
340
343
348
291
553
467
354
359
366
375
391
415
435
448
445
411
359
341
339
340
344
358
351
345
340
348
351
317
474
469
360
351
354
364
380
401
426
442
443
411
361
336
333
332
335
342
344
339
336
342
342
332
375
479
364
342
345
353
367
386
412
429
432
409
360
330
327
327
328
338
336
333
335
336
339
293
490
458
341
336
340
350
365
388
411
426
423
391
344
322
318
317
320
329
319
322
327
331
330
281
499
439
329
330
331
348
363
388
409
425
417
387
341
316
316
318
326
336
327
328
330
338
342
295
536
462
350
348
357
372
388
410
433
442
440
408
359
339
339
344
349
357
354
351
356
358
361
298
574
472
356
360
361
373
384
411
430
442
439
398
355
339
336
334
336
349
346
343
343
346
346
336
365
467
364
340
343
349
363
382
405
423
425
407
362
331
323
321
321
328
336
332
328
330
338
342
266
541
433
342
344
356
359
381
400
420
428
421
375
339
321
316
323
332
344
336
334
339
343
352
310
522
472
360
357
361
370
383
406
426
438
436
406
359
336
330
333
337
350
344
341
342
346
348
312
475
468
351
343
349
355
370
391
414
428
428
399
351
325
318
318
322
322
331
325
327
330
335
335
257
536
418
331
331
335
350
360
386
405
414
405
370
320
316
313
312
313
325
331
325
326
332
331
329
308
451
380
330
340
345
361
378
408
417
427
410
367
334
326
330
337
346
359
348
349
351
356
359
277
589
455
353
356
361
369
386
411
429
437
428
386
343
331
329
333
335
350
346
345
346
350
349
324
441
468
357
349
353
361
376
394
420
434
434
407
360
336
329
329
335
330
346
339
337
338
338
341
287
507
449
336
330
340
348
362
385
410
415
421
387
339
319
317
314
322
321
331
336
335
332
341
345
324
444
459
370
354
363
371
386
404
428
441
441
420
368
341
335
340
340
345
359
347
345
347
352
351
291
548
469
348
351
352
360
375
399
420
434
433
400
353
329
329
327
328
326
339
339
340
338
339
344
325
409
458
356
338
343
347
359
378
403
419
415
392
346
315
310
307
311
313
312
326
327
324
323
323
320
270
502
435
326
323
329
341
354
375
398
413
413
382
334
312
304
304
310
314
329
329
324
331
334
339
322
386
468
358
335
337
349
360
388
411
426
434
412
360
337
329
334
335
341
344
352
360
357
358
362
365
338
457
488
373
360
364
373
387
407
431
447
450
428
381
348
343
345
345
347
346
354
359
351
355
358
356
333
440
465
367
350
353
362
373
393
416
430
429
407
358
330
326
323
328
329
329
340
343
337
339
344
351
343
343
470
382
345
352
358
371
387
414
426
433
417
369
337
326
327
327
332
333
344
342
339
342
342
343
316
442
462
348
339
343
349
361
385
410
425
428
408
357
332
327
327
331
333
338
348
344
342
345
348
351
277
554
450
342
339
352
356
379
395
422
429
429
381
335
318
313
313
318
317
327
335
327
331
330
335
340
258
551
429
333
339
341
354
375
401
419
430
424
385
340
327
324
324
327
332
333
339
345
338
343
344
346
302
497
466
347
338
342
352
365
384
412
425
430
400
354
328
325
326
328
330
332
343
338
338
341
344
344
283
531
460
342
342
345
357
368
393
415
426
424
391
343
324
324
319
321
325
328
333
338
335
338
343
345
335
397
451
366
343
344
357
371
391
416
434
435
415
369
337
332
332
342
348
352
370
363
360
360
363
362
274
589
450
348
347
355
368
381
408
429
439
430
388
345
332
330
331
333
336
348
340
345
346
347
353
273
549
446
332
337
341
355
369
398
415
431
418
387
330
316
314
316
312
323
332
327
322
327
329
332
277
548
460
345
348
356
373
395
417
438
448
442
404
357
335
334
335
339
352
350
342
340
343
345
328
391
495
359
342
343
353
368
387
413
432
435
404
351
325
322
323
323
340
334
335
339
342
341
313
479
469
351
345
353
359
372
394
415
427
430
400
349
326
323
324
323
337
331
331
332
332
338
314
385
472
342
324
328
336
344
362
389
395
399
376
322
297
289
291
291
292
298
310
306
309
310
313
313
229
506
400
313
316
323
331
349
370
388
397
396
358
317
298
303
304
311
308
306
312
322
317
316
316
321
308
333
439
351
324
321
328
343
360
386
403
411
392
357
315
304
304
317
312
327
330
326
326
331
332
319
378
455
358
332
340
350
366
382
407
424
425
404
359
327
321
327
332
345
351
344
348
351
357
350
364
506
389
355
358
367
378
399
426
438
447
422
369
344
338
336
342
347
362
350
351
353
356
359
273
582
445
360
355
368
380
401
416
436
440
431
391
353
342
347
345
340
345
350
347
350
349
348
341
348
487
378
343
345
353
367
387
409
425
431
407
360
329
325
321
327
329
345
337
337
341
341
348
262
580
446
345
348
360
372
396
423
439
449
434
388
350
339
336
342
351
360
349
351
351
355
355
280
549
419
354
358
363
373
392
416
434
436
421
375
340
331
331
332
333
344
342
338
344
346
349
310
483
475
352
347
349
357
372
393
417
427
430
400
356
335
324
326
335
329
341
331
335
343
342
332
372
468
367
346
349
355
368
387
409
423
426
406
359
331
326
327
326
335
340
332
333
339
342
325
395
461
357
340
342
351
363
382
404
420
424
402
354
329
329
333
331
344
341
335
343
344
345
269
541
442
343
343
354
362
381
410
421
432
421
385
340
329
328
330
340
340
336
338
343
342
324
461
445
362
347
353
360
379
400
425
436
435
407
361
337
335
340
349
362
354
350
354
355
356
285
534
422
350
356
364
379
398
422
441
444
427
378
344
336
338
343
358
352
349
352
353
356
292
559
471
352
351
356
364
382
402
423
434
431
393
352
336
336
332
334
345
339
336
334
338
342
282
523
456
346
341
350
360
373
400
418
429
425
387
343
324
318
318
318
330
332
325
330
339
344
329
432
453
372
351
358
369
383
402
426
438
435
404
352
321
318
321
328
344
336
332
334
336
342
259
590
443
338
338
344
353
374
397
417
426
414
367
329
314
315
318
318
334
328
329
329
332
334
263
548
445
336
334
338
349
362
386
407
418
414
374
333
318
317
319
321
322
336
332
332
334
339
343
282
520
452
340
337
343
351
364
389
409
426
420
389
341
327
314
319
315
322
330
336
331
334
343
340
318
452
439
353
342
348
356
377
396
422
436
437
406
365
337
330
329
338
347
362
349
349
350
354
355
290
523
418
355
356
363
375
392
417
437
441
418
369
334
330
329
336
337
348
343
340
342
346
345
293
528
466
346
344
350
357
376
395
418
429
427
392
348
328
328
330
331
334
335
344
346
346
349
351
350
281
546
459
344
345
349
359
375
396
420
433
431
398
355
334
334
331
336
337
337
347
353
345
348
350
355
313
478
456
359
353
354
365
377
394
420
432
432
399
358
331
327
325
332
330
338
352
346
346
349
351
356
279
551
445
359
363
369
386
402
427
446
453
438
393
351
342
342
343
352
361
368
360
360
363
364
366
286
556
433
359
362
369
377
394
420
435
446
432
383
345
336
335
336
337
340
346
355
348
348
349
350
349
275
534
414
347
349
356
365
380
404
425
437
422
380
335
326
327
325
322
325
327
339
331
330
335
333
337
261
542
430
328
334
334
348
362
384
404
417
410
370
327
308
307
313
320
320
333
339
333
334
341
345
342
355
465
391
353
359
367
378
401
426
441
445
423
374
342
334
335
339
340
343
351
345
343
346
342
344
262
580
438
332
336
340
348
360
381
401
410
402
362
313
298
295
293
293
294
300
308
302
302
302
304
301
265
459
349
303
307
313
328
345
370
391
402
387
344
309
301
300
303
306
309
315
311
314
317
323
321
259
482
394
326
328
339
352
369
395
416
420
406
368
330
319
323
322
330
341
342
338
344
350
354
351
330
483
409
361
367
379
396
419
443
458
460
441
395
357
355
353
358
367
380
371
371
372
373
373
330
527
493
372
369
374
381
395
416
440
452
452
418
370
351
348
346
347
348
356
360
355
357
361
363
360
335
501
397
358
359
364
376
394
420
437
447
427
380
341
335
334
335
335
333
338
347
340
344
341
345
344
286
500
399
341
345
352
363
378
406
427
426
416
369
332
317
318
318
326
327
337
343
337
340
343
348
345
324
477
398
352
358
367
378
400
421
441
445
427
380
343
334
338
337
340
349
357
347
349
349
350
354
273
583
458
349
350
356
365
382
406
429
440
434
393
349
334
336
336
338
340
344
353
349
350
354
353
352
272
555
422
345
345
350
361
377
402
420
426
421
375
335
321
318
319
321
326
331
339
331
335
336
342
343
267
559
441
333
338
345
359
375
400
424
432
428
388
345
331
332
336
339
347
357
353
353
351
353
358
335
442
472
371
351
357
365
378
401
424
442
443
416
369
342
336
337
337
340
344
354
350
347
350
352
350
308
486
469
351
343
349
357
370
394
422
434
433
402
353
329
328
327
325
330
329
336
345
341
339
341
346
347
285
540
456
344
347
350
360
376
397
422
429
433
400
354
333
327
329
335
340
343
343
355
356
353
356
358
361
343
427
469
376
356
359
367
381
398
423
438
440
420
372
340
334
335
336
338
343
340
348
356
350
350
352
353
351
299
516
400
349
353
360
370
387
412
432
437
427
379
340
330
329
332
330
331
336
340
341
336
341
342
340
338
296
478
381
334
331
340
349
364
384
400
403
389
343
303
289
284
284
290
290
291
299
295
292
292
292
294
257
419
399
293
282
286
295
309
329
351
365
367
341
292
267
264
265
270
274
280
281
293
288
294
301
303
307
237
490
377
313
316
327
339
361
386
412
426
420
381
342
330
330
333
338
339
348
357
349
352
357
360
365
288
563
451
364
367
375
389
402
430
449
458
451
409
370
353
351
351
358
361
375
370
366
370
370
375
372
377
489
421
380
388
397
410
428
451
466
467
452
400
365
360
354
361
365
370
380
372
372
372
372
375
310
573
489
364
366
371
379
392
411
434
445
446
413
365
343
341
344
345
348
352
360
352
351
355
361
363
288
568
463
352
357
359
367
384
404
422
429
424
389
342
325
321
320
321
328
334
336
334
337
335
345
339
289
497
404
337
339
343
353
375
400
415
430
412
372
329
323
326
333
343
354
359
350
352
356
359
362
280
580
446
358
362
370
381
400
425
446
454
441
397
356
341
344
348
350
357
362
352
357
356
358
358
270
581
439
348
352
354
365
380
407
426
433
429
388
340
325
327
327
329
332
340
343
341
343
346
349
348
272
562
451
344
345
350
362
379
400
422
433
429
396
351
328
322
323
324
329
329
334
337
336
340
339
344
339
297
482
391
338
341
353
360
382
406
422
430
422
378
333
317
321
325
332
338
345
339
344
347
350
355
313
532
472
363
359
364
372
388
408
431
443
440
412
362
336
329
332
341
347
351
341
347
348
349
353
288
573
468
350
348
355
365
376
400
423
435
436
399
351
331
330
333
336
343
349
347
342
350
353
351
289
551
468
351
353
358
368
382
404
428
442
443
408
360
342
341
344
346
348
359
352
351
352
350
356
321
471
458
357
352
354
362
378
396
420
433
431
406
357
324
318
315
316
320
332
322
319
325
324
325
302
426
417
341
323
328
337
353
371
395
407
411
384
335
305
296
295
299
310
310
303
300
302
304
304
227
534
407
298
299
306
315
331
355
379
389
385
351
304
289
289
296
299
307
314
309
311
318
323
328
257
551
446
334
337
344
356
373
399
421
435
435
402
356
343
342
345
354
356
371
363
365
367
367
368
347
451
473
378
361
366
376
387
406
429
449
451
424
381
342
340
338
340
346
355
352
349
352
352
355
341
400
456
381
360
361
374
390
412
432
451
456
433
388
356
350
349
356
362
373
362
359
360
364
366
319
538
479
365
358
362
369
387
406
433
443
445
416
362
338
336
336
340
339
344
352
345
347
350
352
353
270
570
439
344
348
350
361
377
402
422
432
429
392
346
329
329
329
328
332
338
345
343
343
343
347
344
269
556
445
340
341
350
360
376
397
421
432
427
394
348
322
323
322
329
329
342
345
337
335
341
338
344
266
547
432
343
346
355
367
389
414
432
443
437
395
352
336
337
337
342
349
356
351
353
356
356
356
276
592
458
352
357
363
370
391
416
436
447
440
399
352
334
332
335
336
340
347
349
344
345
347
350
347
286
517
399
343
344
353
361
383
408
427
436
424
379
339
326
325
326
326
330
340
334
335
337
336
341
329
371
451
365
335
340
349
359
380
403
419
424
406
356
321
314
311
319
321
327
339
332
333
334
339
345
283
554
461
348
349
357
363
379
406
427
436
439
407
355
335
335
334
338
342
348
355
348
346
352
353
354
276
574
463
348
353
355
363
377
402
425
437
434
400
351
333
330
332
335
339
344
351
344
346
348
352
351
270
564
442
344
344
348
360
373
399
418
429
421
379
337
320
315
315
318
320
327
330
323
330
329
326
334
252
550
428
325
331
335
344
361
386
408
417
416
373
330
314
312
316
323
333
345
336
335
339
342
342
313
463
459
355
342
344
352
366
386
409
426
428
402
352
325
322
322
323
328
334
336
332
333
336
338
340
257
544
407
333
335
344
353
372
403
419
431
418
376
335
318
316
315
314
336
331
327
332
335
341
338
264
550
439
334
338
343
359
376
401
418
435
428
387
344
326
319
323
332
342
355
345
344
351
358
361
301
574
480
369
371
379
386
402
423
445
458
456
421
372
348
347
348
351
364
360
353
356
359
363
362
274
589
442
355
355
363
370
387
411
432
441
432
391
348
338
333
336
339
342
353
345
348
347
345
349
318
463
458
352
340
350
355
370
391
411
428
429
403
357
322
318
322
326
323
337
339
332
336
338
339
339
260
545
426
337
340
351
359
377
404
423
431
428
388
343
330
329
332
341
349
348
345
348
348
354
355
270
586
447
351
353
358
368
384
408
425
438
432
389
347
330
328
331
332
331
339
344
339
341
344
345
344
264
565
431
338
340
343
353
370
399
415
429
420
378
330
316
313
313
315
311
321
321
318
319
320
318
320
251
481
376
309
307
321
326
344
367
388
395
382
340
294
278
278
281
284
297
303
296
304
307
312
319
242
566
433
320
330
338
351
373
398
417
425
422
385
337
328
336
343
344
361
355
354
354
359
362
349
407
495
386
367
368
374
387
408
431
448
455
430
381
349
346
343
344
348
352
342
345
347
352
351
278
560
441
349
351
360
372
389
413
430
438
437
392
350
333
330
338
334
353
352
346
344
351
353
351
358
474
396
358
365
371
385
402
428
444
447
430
379
346
340
341
342
355
347
348
353
351
352
354
292
530
406
348
352
364
373
389
416
430
436
426
374
343
331
327
332
331
344
340
339
342
350
349
296
525
447
344
344
343
358
369
392
410
418
419
387
344
309
325
331
315
331
340
336
328
339
341
261
573
451
340
347
343
355
367
389
410
417
412
362
328
316
301
334
346
332
312
318
321
343
278
536
409
328
322
333
348
371
401
432
444
446
414
368
355
350
355
363
365
356
356
356
358
361
302
559
433
357
360
362
374
389
415
434
444
425
368
328
324
321
325
330
339
332
328
326
333
336
317
416
471
354
334
336
341
361
381
406
425
430
408
352
317
318
317
323
328
340
334
334
339
341
341
282
568
474
343
344
344
356
373
394
415
427
428
400
348
328
329
329
335
341
342
356
354
357
361
358
362
290
574
414
357
354
361
368
389
414
431
439
430
379
335
326
320
320
319
329
331
327
327
331
331
313
385
459
352
326
330
340
352
374
400
416
420
399
348
319
312
316
318
321
333
335
330
331
335
340
314
429
468
353
330
335
342
355
375
401
413
417
390
340
312
304
305
308
311
317
323
318
324
325
328
289
471
452
335
326
332
341
357
379
402
416
421
396
349
326
319
322
315
325
334
344
335
338
346
349
336
367
475
378
351
357
363
378
401
427
438
444
426
376
345
337
339
342
351
343
352
352
348
353
355
353
293
534
406
349
354
357
368
390
405
429
439
419
374
334
322
323
326
331
340
336
335
340
342
346
271
528
416
342
341
350
363
381
405
419
425
411
368
324
315
316
314
315
322
323
317
317
319
326
276
477
437
325
323
326
334
348
369
391
402
402
374
323
302
300
301
298
302
314
311
312
315
315
316
272
472
424
318
317
323
331
347
375
394
411
412
384
339
314
310
313
316
323
330
332
331
338
341
342
291
517
452
344
342
351
359
378
401
423
436
435
406
362
338
334
340
343
347
354
364
358
360
365
366
362
321
507
415
363
366
371
384
406
430
446
455
443
398
358
347
346
348
349
359
367
365
367
369
373
359
395
487
385
364
370
378
393
410
434
455
447
427
379
343
336
332
333
332
337
345
339
336
342
342
331
327
442
374
334
337
345
359
375
397
412
418
404
356
322
314
316
325
334
349
345
340
344
349
352
267
560
435
345
349
359
369
385
411
430
441
432
391
352
340
338
342
343
351
342
341
342
345
350
268
568
439
344
346
351
362
379
402
423
433
426
390
342
336
329
327
330
336
339
336
334
338
343
322
407
441
357
342
344
354
367
388
410
425
426
403
358
326
319
320
327
329
343
339
339
343
345
350
290
569
466
358
361
369
380
396
421
442
454
450
416
368
348
345
348
352
363
361
356
359
361
361
322
497
481
362
353
358
369
382
404
428
440
441
412
364
341
335
337
339
335
349
347
346
348
350
350
280
550
458
345
346
352
360
376
396
417
429
422
389
342
321
321
318
320
319
328
334
331
329
334
337
284
506
438
335
329
337
348
362
384
403
413
413
387
342
317
313
317
323
331
345
342
342
344
350
355
279
583
466
353
355
362
372
390
414
437
445
442
404
360
339
339
341
343
351
349
347
349
351
352
340
367
484
370
345
345
352
362
381
401
418
426
404
354
321
320
315
314
310
315
315
311
311
316
314
310
315
434
353
314
315
319
338
352
377
390
396
388
340
305
299
302
304
315
328
331
330
334
338
343
305
488
457
352
348
350
362
383
402
428
440
444
413
361
341
335
338
343
353
356
350
353
354
355
356
278
561
424
353
355
361
372
391
416
434
442
432
387
348
340
337
337
342
334
350
351
348
354
355
352
336
425
466
361
351
354
365
378
397
419
433
435
414
363
332
326
321
325
328
342
347
343
342
345
351
349
317
483
408
358
363
373
387
407
428
444
450
433
387
351
342
341
343
346
353
359
353
353
353
355
358
279
553
419
353
352
356
368
384
410
430
439
431
382
342
332
327
328
327
326
330
335
332
328
332
337
337
263
520
402
323
323
326
338
359
383
400
411
406
366
331
324
330
342
351
360
362
369
361
355
353
355
352
307
543
403
358
359
367
376
393
415
433
438
421
376
337
333
334
335
337
339
356
348
347
350
354
355
277
618
466
352
357
359
370
384
407
424
431
431
391
345
326
324
322
325
329
332
343
334
335
340
341
343
279
524
401
345
347
355
365
384
408
424
431
419
378
339
322
326
328
331
336
341
350
343
345
349
354
351
317
500
399
355
359
367
378
395
417
433
439
425
383
345
339
339
340
342
342
352
353
347
347
352
348
310
484
458
349
345
347
356
366
389
411
424
424
400
355
321
318
319
319
323
332
334
332
333
335
337
336
303
456
393
342
345
356
370
387
416
432
438
425
380
341
334
332
338
340
346
356
346
346
347
351
350
281
553
456
341
342
344
353
364
386
406
420
416
384
335
312
309
309
311
308
316
321
313
317
316
319
318
253
483
374
312
316
322
334
351
375
394
405
398
352
317
307
303
306
306
307
319
319
316
318
325
324
303
409
428
341
327
329
341
356
377
402
419
423
400
349
321
316
316
323
326
339
342
341
346
347
354
356
340
481
405
361
366
374
391
411
434
449
457
440
392
357
348
349
349
355
357
369
363
361
362
363
368
290
580
464
361
361
366
374
389
412
434
445
440
407
361
343
342
341
344
346
351
355
351
350
351
352
352
295
501
403
348
348
360
372
390
411
430
435
421
379
341
324
323
324
329
338
345
331
338
340
341
346
268
563
442
351
355
362
374
393
417
436
446
437
397
354
338
337
342
344
352
362
353
351
354
356
356
320
493
473
359
352
354
360
372
396
419
433
436
409
363
338
335
332
335
337
329
342
343
331
335
336
339
286
499
439
325
323
326
336
349
367
392
396
402
374
321
297
290
286
294
300
308
307
303
307
311
314
300
362
418
344
318
326
334
348
370
393
413
411
392
344
315
312
309
315
324
335
334
331
335
340
341
333
346
475
371
340
345
354
364
384
410
426
431
413
366
332
327
330
331
332
343
346
342
343
344
344
348
266
546
416
339
344
346
361
378
403
421
433
422
377
339
328
320
326
328
340
346
339
338
341
338
346
290
497
410
353
358
366
384
405
429
451
457
444
395
356
347
346
354
354
368
363
359
358
363
366
359
357
498
395
360
360
369
381
401
424
441
445
426
373
341
335
335
338
338
338
351
350
346
346
346
349
329
408
473
365
347
347
352
365
384
408
422
426
405
354
325
316
314
317
314
322
327
319
317
318
318
319
234
546
410
305
304
312
319
334
356
375
379
376
327
284
263
267
267
279
289
292
281
285
288
287
287
254
447
339
290
291
300
314
335
364
379
384
369
317
286
278
280
284
296
302
299
303
306
312
316
239
537
397
328
334
342
357
376
403
428
436
431
390
355
349
350
352
357
363
367
363
366
367
372
367
347
513
408
370
374
376
388
407
430
445
450
435
383
355
343
341
347
346
366
362
362
369
371
374
371
365
511
416
378
384
392
406
426
451
468
471
451
406
368
361
363
366
365
373
377
373
373
376
378
380
298
594
446
369
373
374
385
404
425
447
457
445
400
361
349
344
345
347
345
361
353
351
351
355
348
315
467
459
351
342
345
354
367
393
411
428
427
397
350
320
314
315
322
323
334
341
334
339
345
349
348
303
499
401
348
351
360
368
391
413
432
438
424
378
342
335
336
336
337
340
353
350
350
348
354
352
294
548
476
353
355
354
367
381
399
423
436
436
403
351
329
331
327
331
331
337
342
337
340
345
344
342
290
496
400
341
347
351
365
385
406
422
433
418
370
332
320
323
325
336
346
346
345
343
347
350
337
402
470
375
351
355
363
378
401
424
437
441
416
367
336
330
335
339
343
353
350
349
350
354
352
295
549
474
352
350
354
362
379
402
423
439
437
400
349
333
321
323
324
322
330
338
328
331
334
335
312
436
441
343
328
335
342
354
377
399
411
416
387
333
303
299
300
307
307
320
324
321
326
332
335
329
337
459
374
336
340
347
360
381
405
423
426
409
360
327
320
323
327
333
345
339
337
341
343
348
308
502
480
354
350
351
361
377
399
424
441
439
412
358
333
328
327
327
322
332
338
333
341
342
348
320
407
452
354
341
341
347
361
388
406
422
419
402
342
315
310
317
322
327
343
335
333
337
347
351
288
586
474
356
359
368
376
393
415
438
451
447
409
363
345
341
344
351
359
366
357
361
363
367
367
295
563
424
360
363
372
381
401
425
446
453
440
394
355
348
349
349
350
357
364
360
361
364
363
353
385
493
375
351
352
353
367
384
413
420
424
396
348
313
301
300
303
302
312
302
299
300
299
299
233
531
407
293
293
301
315
327
354
370
381
374
340
289
273
270
274
277
294
281
278
281
286
288
211
535
399
293
297
304
314
336
365
387
401
398
359
316
304
311
313
323
338
330
336
340
346
351
281
581
467
355
360
370
375
394
423
445
457
455
414
373
358
361
360
360
372
378
373
377
379
382
381
318
543
432
374
383
390
397
414
438
454
463
448
396
364
353
356
357
363
373
369
369
373
375
377
294
587
463
373
373
380
388
407
430
448
457
447
402
364
351
350
347
355
357
354
357
363
363
344
441
476
375
362
366
374
386
407
429
445
448
420
371
338
335
338
340
340
334
334
333
334
334
279
475
397
334
332
337
356
375
397
414
418
400
357
323
314
313
326
333
327
330
332
336
341
267
570
450
345
354
360
376
390
415
437
446
435
388
348
336
338
341
356
347
342
350
352
354
272
601
461
353
357
360
372
395
416
437
450
438
394
353
341
339
339
348
356
352
352
356
359
354
346
497
389
353
357
362
371
394
417
435
440
419
372
343
341
335
332
346
349
343
339
345
342
336
306
470
374
331
341
345
361
377
404
421
425
402
351
317
313
308
315
322
327
321
327
327
327
320
354
432
365
338
341
354
366
392
422
435
439
415
365
340
332
334
341
352
348
339
343
349
352
281
585
461
353
354
360
369
387
408
432
441
435
394
350
335
335
335
344
351
345
342
346
347
345
306
491
389
343
346
352
366
385
410
425
431
408
360
330
325
324
324
331
338
335
335
337
340
331
317
462
365
328
331
336
350
368
396
406
413
385
339
308
295
298
300
306
317
312
301
307
307
309
229
531
399
304
310
318
328
352
376
396
403
395
347
305
293
289
297
297
308
318
308
308
309
308
310
227
530
383
304
309
316
327
346
370
390
400
391
345
307
299
299
304
308
314
325
322
323
331
334
336
266
522
400
339
341
347
362
381
410
429
439
424
377
343
336
338
342
344
348
354
368
363
363
369
370
341
473
483
374
366
367
374
391
409
444
454
455
431
378
351
344
345
346
350
361
368
359
361
368
365
363
333
501
413
371
369
381
393
418
440
457
464
446
396
363
356
358
364
367
379
377
370
371
380
383
303
622
492
377
377
380
393
406
431
450
462
452
410
362
349
346
347
353
361
362
358
358
362
366
342
447
484
376
363
364
374
387
405
431
440
447
415
370
340
340
333
334
335
345
339
335
337
337
338
260
564
440
328
329
336
348
364
385
403
412
404
363
316
303
299
299
310
319
319
319
323
325
331
312
417
444
355
339
345
357
374
399
424
437
434
408
356
334
329
334
336
348
353
346
346
349
354
345
365
493
381
352
355
366
379
399
425
437
441
418
368
340
334
337
340
341
349
352
349
354
359
358
291
574
463
352
356
363
369
387
410
426
438
427
394
345
331
325
331
327
336
346
335
339
342
348
335
348
450
376
345
345
357
369
391
414
427
431
411
364
333
328
328
333
343
356
355
356
359
362
367
294
594
477
362
364
370
372
390
414
432
447
443
402
357
342
338
341
342
354
354
349
348
353
355
315
503
481
360
352
356
361
373
396
417
428
426
393
339
324
315
318
322
318
337
334
330
328
335
343
266
565
447
333
339
345
358
376
405
422
434
425
385
340
328
325
329
338
352
353
348
347
352
357
296
577
478
357
354
360
370
389
412
434
444
438
400
354
335
333
336
340
349
351
344
345
349
352
285
576
474
345
348
353
365
381
403
427
434
430
390
343
330
327
327
330
331
337
343
340
344
346
348
312
472
472
352
346
349
359
374
392
417
431
431
403
352
327
323
324
325
331
327
338
345
344
346
349
352
328
423
476
363
349
358
363
377
397
417
434
438
412
359
328
324
324
323
328
334
347
340
341
349
349
345
272
524
419
344
348
355
370
388
413
430
434
422
378
343
330
335
343
352
368
363
361
361
368
365
299
599
481
361
365
368
378
394
417
436
446
438
399
349
335
337
341
342
353
355
348
351
352
354
317
489
477
357
346
348
358
370
391
416
426
426
391
339
318
312
311
308
308
318
312
304
303
302
302
218
511
391
282
278
279
288
297
323
336
353
343
299
255
237
235
242
242
250
267
259
259
266
268
270
189
491
370
279
286
300
316
336
368
392
399
395
350
314
299
303
311
318
329
340
337
343
347
356
356
333
514
406
366
370
379
393
414
440
461
467
446
396
366
360
359
364
366
369
381
374
375
376
383
380
321
544
428
374
375
382
392
412
437
454
458
439
395
354
353
349
348
353
357
368
358
358
361
368
362
285
592
470
360
366
376
390
407
432
453
461
455
413
370
357
354
357
359
365
373
370
364
366
371
370
330
506
488
370
365
368
374
390
409
435
449
452
423
379
351
348
348
345
348
348
353
356
349
352
356
352
345
332
480
385
343
351
358
374
388
409
427
435
409
364
324
311
316
322
326
333
343
342
340
339
346
353
319
490
465
365
359
365
370
383
406
429
437
437
411
361
340
337
339
342
345
346
350
358
352
355
356
359
352
349
506
393
358
355
363
374
397
423
438
449
428
381
345
334
334
331
333
333
337
345
340
342
346
341
345
262
543
419
338
337
344
355
377
399
418
423
409
371
336
316
317
319
326
336
340
354
354
355
358
362
367
305
570
479
361
361
363
370
387
407
428
438
435
403
355
337
334
334
337
341
343
355
351
350
351
352
355
275
573
455
338
339
343
360
368
395
415
429
423
386
337
321
319
324
318
321
329
340
333
331
338
339
341
278
560
452
346
351
358
367
384
407
430
445
439
404
357
338
337
340
345
348
360
360
352
353
354
359
359
308
525
407
355
357
363
372
392
417
433
444
433
383
351
340
336
337
337
339
342
347
344
338
345
341
337
311
480
382
337
338
347
356
375
398
412
419
401
357
321
315
311
315
320
329
341
334
332
338
339
341
265
567
445
335
336
340
348
364
386
402
408
401
359
313
299
292
292
291
298
301
306
300
296
298
297
294
233
467
342
289
295
299
316
336
357
376
387
369
333
293
284
283
287
293
306
317
315
318
324
332
337
276
563
452
350
356
365
375
393
415
439
451
447
412
369
352
350
353
356
360
369
373
367
369
370
376
369
365
516
409
375
377
382
394
413
439
454
464
447
400
366
360
360
357
363
367
380
374
371
375
373
372
320
550
478
372
374
377
387
403
419
441
447
449
413
363
340
338
339
342
347
357
352
348
343
348
352
336
409
450
374
350
357
365
378
401
422
437
436
413
367
336
328
329
334
338
346
347
345
347
350
350
345
320
491
392
350
353
364
374
395
416
431
437
419
375
343
340
338
344
344
351
357
350
354
356
360
361
285
572
461
352
356
360
374
388
409
430
437
433
399
353
342
338
340
341
350
363
359
356
366
360
363
347
444
450
380
361
367
374
385
404
424
436
440
413
369
337
331
333
338
347
356
347
349
351
357
358
339
458
462
378
362
366
373
385
404
429
441
444
420
373
346
337
337
339
347
351
343
345
347
347
348
305
506
472
351
351
355
360
376
397
418
433
435
408
361
339
335
338
339
339
353
343
346
345
351
353
328
444
456
361
355
359
365
381
399
425
434
431
414
362
332
330
327
330
339
345
329
331
336
334
336
315
403
444
358
338
344
353
366
389
407
422
422
401
354
320
311
317
318
326
332
327
327
328
334
336
252
565
431
338
339
348
362
376
402
422
430
421
378
337
328
329
333
334
347
340
338
340
344
349
338
353
483
380
352
356
364
375
394
418
433
439
419
373
340
333
335
333
342
347
343
345
343
347
349
320
452
473
355
349
353
362
376
396
423
430
442
415
370
346
338
340
341
346
346
344
342
346
350
346
285
506
442
336
334
338
342
357
377
395
398
389
349
294
266
259
259
262
264
250
243
245
244
243
237
199
377
281
236
241
254
269
289
315
333
340
334
290
260
255
261
275
276
278
286
296
296
311
275
471
438
345
339
357
367
384
408
429
446
458
425
380
356
359
359
373
386
383
384
385
391
390
392
403
491
427
393
399
415
427
443
464
476
480
462
413
380
371
372
379
387
390
382
381
388
386
392
310
574
469
382
383
394
401
422
439
455
460
452
411
367
352
352
349
356
355
352
354
357
354
354
301
514
403
353
357
363
379
394
416
434
438
429
379
345
343
338
339
342
346
342
338
349
351
336
390
454
369
344
349
353
373
397
415
424
430
407
355
328
320
323
333
339
336
333
335
340
340
265
553
440
339
346
348
362
380
406
423
433
422
383
343
331
330
336
347
345
338
341
349
345
308
482
455
351
346
355
365
380
401
425
435
436
400
356
336
334
335
337
351
343
345
348
350
353
282
522
448
356
361
365
379
399
424
443
450
437
400
359
347
343
345
353
347
343
342
344
344
309
477
450
355
350
355
363
379
401
420
432
433
400
361
340
334
334
340
349
347
346
344
344
348
290
541
462
351
352
361
372
387
410
429
442
438
403
360
346
343
344
353
353
344
348
350
353
341
404
482
373
357
363
366
383
404
433
443
448
419
372
346
336
339
344
331
330
326
330
324
262
507
434
329
329
334
345
364
386
410
419
418
379
339
323
321
323
331
320
319
323
325
327
263
543
385
331
333
344
357
378
403
419
425
407
360
333
331
333
341
338
336
335
338
343
289
550
484
347
345
350
356
377
395
412
426
419
381
333
319
314
310
315
321
318
318
323
321
299
409
428
335
318
319
330
340
362
382
397
396
372
324
302
298
302
303
309
313
306
311
316
320
291
424
436
327
317
324
330
346
368
393
399
404
375
333
312
311
308
313
311
324
317
312
320
320
314
314
418
358
315
319
322
332
356
368
384
383
368
324
295
283
287
293
299
308
308
305
314
320
327
252
504
415
337
340
353
367
386
411
429
438
424
382
350
341
344
350
357
364
358
362
364
370
360
386
494
396
371
375
380
395
415
441
456
460
438
388
368
366
364
363
367
373
375
372
376
381
384
308
588
489
377
382
385
397
409
433
450
460
452
415
376
362
360
360
358
361
369
368
365
366
369
368
291
562
454
365
361
367
382
395
421
440
446
433
398
358
349
348
351
357
366
370
362
364
364
365
368
292
542
427
360
359
362
373
390
412
427
429
415
369
337
330
329
334
341
342
346
340
341
337
343
328
347
466
362
336
340
346
360
385
407
415
422
393
343
319
314
316
318
324
335
337
333
334
340
344
295
529
464
354
352
360
370
388
409
434
439
438
402
355
338
338
342
347
351
367
358
355
354
355
359
278
546
426
352
353
363
369
391
413
430
436
417
370
340
332
335
333
335
338
342
345
341
341
343
347
273
551
459
339
342
340
352
359
382
402
419
404
372
323
310
309
310
307
314
324
318
313
320
319
323
243
524
410
320
322
336
345
366
390
409
417
405
362
328
323
324
329
339
344
358
352
351
356
357
358
321
505
411
363
368
372
387
408
426
444
449
426
380
349
343
337
345
346
352
354
353
351
353
357
317
479
473
355
351
353
360
372
396
418
431
432
402
357
339
336
333
340
340
343
351
346
345
348
348
312
482
458
354
349
353
363
379
393
420
429
427
397
351
330
323
327
328
334
349
347
347
344
348
353
274
578
464
358
361
367
378
393
418
436
443
435
391
356
342
339
345
343
353
360
351
352
356
359
345
391
486
379
356
357
362
374
397
419
434
437
408
361
337
332
333
334
340
346
354
343
348
349
352
333
390
479
365
348
346
357
371
388
414
425
432
405
357
336
327
325
327
332
331
340
342
340
342
345
348
272
551
445
341
346
353
363
378
401
419
425
416
375
333
322
319
326
329
344
352
343
349
351
355
353
319
487
404
359
365
369
382
401
425
436
442
420
369
346
340
336
338
349
356
352
349
352
353
357
310
509
472
358
353
356
361
378
396
421
434
428
396
351
332
330
330
331
334
336
348
343
346
349
350
350
290
532
467
347
346
348
355
368
392
415
423
421
387
342
322
322
319
320
319
316
319
326
320
319
324
318
312
297
453
343
310
314
320
329
344
370
387
392
372
317
282
276
277
274
288
278
296
297
293
303
300
301
244
501
429
315
323
328
334
361
385
408
417
414
381
335
322
317
325
331
336
356
343
345
350
355
367
273
576
458
361
376
385
401
421
450
466
471
459
407
366
361
359
368
371
389
385
382
382
384
389
341
558
512
392
388
390
402
418
437
463
472
469
427
381
362
361
364
366
377
385
378
377
377
384
381
302
567
448
371
377
380
390
409
435
448
456
439
390
359
349
342
342
348
354
353
349
352
356
359
304
538
472
355
360
359
369
382
403
429
439
430
392
349
332
332
329
335
340
349
344
342
346
351
352
279
520
412
348
352
359
368
388
412
427
432
420
374
340
331
325
328
333
342
335
336
341
343
338
306
471
373
334
329
340
352
373
393
406
405
386
339
312
306
304
309
320
325
317
320
324
325
296
450
424
338
329
335
340
356
384
407
415
417
384
341
325
321
327
338
351
344
342
344
350
349
275
563
450
351
353
358
370
390
412
428
437
423
382
343
332
332
333
343
343
337
341
344
346
315
472
460
351
345
348
356
372
391
414
425
426
395
352
331
330
329
333
340
336
336
344
342
351
281
547
458
347
349
358
364
381
404
426
439
432
397
353
343
338
333
338
345
340
340
342
350
342
279
500
415
343
345
349
365
383
403
421
427
408
367
328
318
321
319
333
342
336
337
338
344
348
276
543
441
356
359
365
375
394
418
435
441
426
379
347
338
339
341
347
351
347
347
351
351
345
352
477
379
350
357
361
372
395
418
432
425
410
362
336
336
332
334
333
345
347
337
347
349
352
310
493
465
354
348
352
358
370
390
413
428
428
394
347
332
333
332
336
330
342
349
342
351
353
354
326
465
468
358
355
357
369
384
402
428
442
444
410
366
342
345
337
332
340
338
347
351
349
351
351
352
314
501
446
356
351
351
364
380
394
413
430
432
393
349
322
313
316
323
328
330
348
340
338
345
351
352
287
516
421
350
350
361
369
387
420
432
440
418
365
336
323
325
326
330
341
343
338
338
346
345
308
483
457
353
342
346
355
368
395
415
431
427
393
344
328
326
324
327
331
328
344
332
331
339
336
334
327
472
376
336
345
350
357
377
406
423
426
403
358
318
320
320
318
323
326
341
334
338
341
340
341
301
469
398
343
350
358
369
391
415
431
434
408
363
334
324
323
335
343
346
358
350
351
357
353
346
354
475
390
351
355
371
377
398
423
439
441
416
365
340
334
329
334
339
340
353
349
350
344
354
357
279
559
437
353
359
367
375
391
416
438
447
438
392
353
343
346
343
340
353
347
344
355
353
352
352
353
298
530
459
352
354
353
370
377
405
422
432
426
397
346
324
324
320
322
326
332
344
338
334
341
345
349
280
516
429
352
358
366
377
394
419
438
445
429
380
347
334
335
340
338
343
349
355
352
348
352
354
356
274
559
427
348
352
357
364
383
409
430
442
431
389
340
339
330
330
335
335
343
350
345
346
348
353
355
283
507
418
351
351
365
369
391
413
433
439
422
381
335
326
329
333
340
341
351
355
353
356
358
364
319
524
474
369
365
368
374
389
412
433
447
443
404
355
337
336
333
337
341
343
353
346
340
343
345
345
274
546
451
334
337
334
345
358
378
403
407
401
360
309
291
287
285
288
287
289
290
296
295
292
288
292
292
220
490
396
287
292
297
301
319
341
366
378
375
335
293
278
277
280
281
290
291
302
305
307
309
315
318
290
442
425
340
321
335
341
355
381
411
422
430
403
356
330
333
334
340
353
359
374
368
373
369
374
382
317
580
495
384
384
385
399
413
432
457
471
466
429
382
368
363
364
366
369
377
385
376
379
384
385
375
379
506
407
374
377
387
395
415
441
458
467
446
397
365
361
353
364
359
362
364
371
364
363
368
368
365
332
483
403
359
366
367
384
399
422
437
439
426
381
342
330
330
321
333
341
351
349
351
353
359
362
284
568
454
356
361
367
373
387
407
430
441
431
380
344
329
329
329
327
331
346
343
334
333
335
339
290
495
452
333
331
335
341
360
383
398
418
417
387
340
320
316
320
318
321
321
331
335
332
334
339
341
324
407
462
359
344
346
352
369
393
415
429
437
412
368
335
335
325
336
334
338
344
353
349
347
356
354
342
377
445
383
345
355
360
376
393
419
429
435
418
368
337
330
329
337
337
346
350
364
356
359
365
363
359
352
474
410
369
371
375
389
413
431
449
452
434
389
357
347
342
347
351
353
364
365
357
360
362
366
350
391
486
378
356
356
360
369
391
410
436
433
412
372
335
327
330
329
333
339
334
351
345
341
345
345
349
271
543
431
346
342
347
361
377
405
418
429
423
384
341
328
322
323
326
331
329
337
343
335
334
343
345
337
341
448
385
347
351
356
372
391
419
433
437
421
379
341
337
336
336
341
344
343
357
347
349
348
352
353
281
569
458
346
349
350
360
378
399
419
428
430
395
352
328
333
331
338
336
337
344
353
345
350
351
351
352
272
548
424
348
348
356
364
381
404
420
430
426
384
341
328
323
327
329
333
341
347
342
343
343
345
348
283
529
425
342
347
351
365
380
406
420
435
428
393
347
331
332
337
339
347
355
361
352
356
360
365
362
291
529
429
363
356
370
377
393
416
435
442
434
393
352
335
336
335
338
339
345
346
340
344
346
344
339
301
479
383
335
344
348
353
373
387
410
412
399
353
312
304
306
308
306
308
315
318
312
312
312
310
310
241
476
379
307
310
316
326
350
365
388
394
387
352
309
291
294
296
298
305
316
323
312
317
320
322
325
274
479
401
338
332
345
364
379
406
426
440
429
395
355
341
345
345
356
361
367
362
365
364
367
371
297
585
470
371
369
375
384
408
427
451
459
456
409
368
352
351
351
358
359
367
377
363
367
374
369
369
292
572
445
362
364
371
380
395
418
440
449
446
398
362
341
338
341
340
339
340
350
343
348
348
353
350
282
536
428
346
349
358
367
386
409
424
434
424
383
340
323
325
321
324
328
334
339
340
340
337
342
344
290
492
411
349
356
361
376
396
420
443
442
432
387
343
332
334
339
343
345
356
354
348
352
351
355
293
555
473
353
352
356
367
380
402
426
439
436
405
354
340
336
335
339
340
347
348
344
347
352
352
351
325
490
381
344
349
361
363
384
407
428
438
416
377
334
328
328
333
332
332
340
340
340
339
344
344
324
444
433
365
346
347
358
372
393
414
434
430
403
363
326
327
320
331
338
347
344
337
343
348
351
332
438
454
379
359
368
375
384
413
425
444
449
424
375
349
341
343
350
354
365
354
356
357
358
362
303
552
478
357
355
362
367
381
405
428
437
442
408
356
341
341
336
336
334
339
345
339
339
347
344
344
287
488
397
345
343
350
359
378
403
419
430
408
376
324
314
321
324
323
333
337
327
331
334
335
336
274
504
414
338
346
358
367
388
415
435
440
426
382
349
332
330
334
337
357
349
345
348
350
350
343
368
468
377
352
355
359
368
392
419
435
443
419
374
337
332
335
337
339
343
353
343
343
348
350
351
286
519
404
355
347
358
368
382
408
432
435
424
386
340
327
331
329
332
339
348
344
345
338
348
350
274
545
438
343
350
351
360
386
403
426
431
423
386
343
329
319
324
331
342
350
339
342
349
351
363
277
576
455
354
355
358
374
393
416
432
447
433
395
349
332
339
332
337
351
349
342
346
350
352
343
357
469
375
350
348
357
366
391
413
430
432
419
363
335
327
327
329
330
337
344
340
342
345
345
347
272
545
423
341
348
352
363
380
402
424
433
428
387
347
334
332
328
334
326
343
341
337
342
341
344
346
275
513
413
347
346
352
365
379
403
422
423
423
380
339
322
323
324
325
335
343
341
337
341
348
350
273
563
445
349
356
358
375
390
412
431
439
430
388
349
334
331
335
338
344
354
346
346
345
344
351
271
572
442
345
351
352
363
377
407
418
435
430
387
344
326
325
330
328
328
336
346
341
341
343
348
343
321
481
383
346
349
356
361
381
408
424
429
419
375
335
328
326
334
332
338
340
341
337
338
347
345
289
485
410
343
348
358
364
386
405
426
436
418
375
340
324
325
330
328
339
341
336
331
337
339
338
320
457
393
342
348
361
372
393
416
426
433
419
374
338
329
329
333
344
351
344
341
342
345
344
268
572
445
342
348
351
361
375
401
418
429
422
387
343
330
325
330
328
337
337
335
337
342
342
332
359
458
369
340
347
352
363
379
411
415
425
405
355
325
320
321
320
324
329
342
336
331
340
337
342
271
535
430
343
353
351
367
390
411
421
434
425
393
350
332
322
328
334
348
345
345
342
349
353
305
537
463
368
364
372
381
400
414
435
447
442
406
360
341
340
336
341
355
347
346
344
346
347
289
528
467
344
343
348
360
369
390
415
426
429
396
351
331
331
331
333
331
338
332
333
330
336
324
353
436
359
331
330
334
354
361
390
407
410
388
343
316
306
307
310
324
326
313
321
326
325
331
287
466
397
339
344
355
365
393
410
429
435
423
375
343
338
331
336
346
353
338
344
344
346
339
375
478
371
351
349
360
366
387
412
429
437
416
365
336
334
333
335
341
346
340
339
347
350
349
298
505
406
353
354
362
374
388
408
426
432
417
375
336
330
329
328
329
343
344
336
342
347
346
316
478
444
358
350
353
364
376
398
421
428
431
406
362
333
328
332
341
355
349
347
354
354
358
289
578
468
356
361
360
373
388
413
431
440
434
400
352
336
336
336
350
351
345
347
349
351
339
366
472
376
348
349
356
369
388
409
424
430
407
359
333
326
326
328
340
341
337
340
342
346
307
472
452
350
345
347
355
377
389
418
429
427
403
351
328
322
322
330
339
339
335
339
344
348
322
448
430
359
341
350
362
372
400
420
435
436
408
366
337
333
333
339
352
349
341
341
343
346
304
488
451
345
339
338
348
360
380
399
410
411
380
332
308
302
302
306
316
315
312
317
314
316
256
495
427
310
312
318
327
342
370
393
403
405
368
325
306
306
305
303
315
316
312
318
324
327
305
430
437
348
339
342
352
366
384
412
425
420
398
351
322
318
319
325
339
351
342
344
348
352
349
364
472
401
363
372
383
400
420
445
456
458
433
387
356
351
351
357
376
366
365
372
373
372
312
566
494
368
369
374
382
398
421
441
452
448
411
364
345
341
342
343
352
352
351
354
354
359
302
535
475
356
355
361
368
382
403
425
438
435
401
355
335
332
331
333
330
346
342
341
343
342
346
273
541
442
343
339
349
359
376
394
413
418
420
377
334
313
314
313
322
335
333
331
332
337
338
341
281
485
406
345
351
362
376
394
420
436
441
426
380
347
334
335
340
348
357
349
354
355
356
357
312
503
407
352
357
365
382
397
419
435
442
423
376
343
337
338
340
344
359
351
350
352
353
354
274
559
435
354
356
361
372
391
417
431
440
425
383
344
331
328
332
329
334
334
332
333
336
336
281
531
443
337
335
345
351
370
392
414
421
420
384
338
320
315
317
322
332
337
337
338
341
348
340
384
458
387
356
362
377
388
409
432
445
449
425
377
348
343
346
351
356
362
359
356
359
359
362
288
578
470
359
360
366
373
390
410
435
442
440
399
355
340
338
337
340
337
348
349
344
348
350
353
292
539
464
348
347
351
358
374
399
422
437
432
399
350
334
331
329
326
330
329
340
341
340
341
342
347
264
540
429
339
342
349
361
378
400
419
425
417
381
337
317
317
319
328
330
340
339
338
338
344
347
283
558
460
351
352
357
369
386
408
427
436
433
396
353
333
330
333
335
336
348
350
346
348
352
351
306
504
463
354
349
350
362
374
396
418
430
432
402
351
327
324
326
330
330
332
349
346
344
345
347
351
270
561
441
346
353
355
367
382
402
424
432
428
384
343
326
326
322
326
325
329
342
339
333
338
341
340
277
493
402
339
337
350
364
378
401
416
422
408
363
328
318
315
319
325
334
342
347
346
350
356
359
305
547
471
362
354
360
370
387
409
432
442
440
407
360
341
339
338
344
344
350
355
351
354
356
358
344
385
485
376
351
354
362
373
393
419
436
441
417
373
339
336
331
330
329
330
334
345
338
339
343
343
310
458
447
345
340
341
352
364
386
409
423
422
392
346
323
310
315
321
323
336
343
331
339
343
348
345
338
479
395
353
360
364
383
402
426
437
439
420
372
339
331
331
337
344
353
350
346
347
348
354
325
462
476
360
351
357
365
380
401
423
439
438
410
358
332
327
328
331
337
341
350
343
345
345
346
350
286
530
407
344
352
356
372
389
413
431
434
423
375
339
333
333
336
340
343
350
356
350
354
355
358
341
402
497
372
354
354
362
375
395
417
432
433
410
362
328
320
320
321
322
319
332
330
326
332
332
335
284
521
447
331
329
339
346
360
381
399
413
412
379
333
308
308
308
314
319
337
331
332
334
340
344
272
571
456
342
343
348
360
377
396
417
427
422
379
336
316
315
315
323
327
336
326
329
330
332
330
270
494
384
324
329
335
345
366
390
410
417
400
355
327
312
314
316
316
320
333
321
323
327
328
327
259
487
391
331
333
343
352
368
399
413
422
413
370
330
321
319
320
330
339
340
337
341
341
344
336
356
451
391
352
359
368
380
406
430
446
450
430
387
356
349
350
354
361
375
367
362
366
369
373
321
546
484
373
370
371
382
399
417
438
451
449
420
369
349
348
347
349
352
362
359
358
358
361
362
327
478
476
367
360
359
369
379
398
422
437
433
410
362
332
328
325
329
328
337
337
339
339
341
342
323
418
441
359
339
349
355
371
395
411
427
429
404
355
327
317
324
326
337
348
339
344
346
350
355
293
571
471
363
363
367
377
391
413
434
442
441
408
359
339
337
341
344
352
360
354
353
355
357
358
275
574
442
350
353
358
368
384
406
427
436
428
393
347
339
335
332
334
338
347
340
337
337
341
342
291
478
388
342
340
352
361
379
403
415
422
405
359
322
312
310
318
329
337
327
326
330
334
335
276
548
448
342
349
355
369
389
411
431
442
443
406
360
342
340
341
349
361
355
352
352
354
357
340
397
483
376
355
358
365
379
399
422
439
442
419
369
343
339
333
336
331
346
342
338
344
341
340
324
397
446
357
333
340
348
358
376
400
414
418
394
345
316
306
311
313
312
324
321
318
326
330
328
331
275
483
400
339
345
356
370
386
413
429
439
426
381
344
333
333
336
341
351
348
345
346
350
353
346
352
476
381
349
354
359
371
388
416
432
435
415
368
340
332
332
334
337
345
348
344
346
348
346
343
315
472
384
345
347
355
366
384
405
426
433
413
371
332
326
328
329
335
342
341
336
344
346
352
344
315
477
400
355
360
370
380
400
425
441
446
432
388
347
342
338
344
345
350
361
356
355
356
359
358
293
562
474
355
355
358
366
380
400
425
436
434
406
354
334
330
330
332
339
347
337
335
338
340
341
280
525
446
336
334
340
352
366
384
407
418
416
382
333
312
310
310
319
321
330
319
322
324
332
331
255
553
433
338
343
353
369
387
411
429
441
430
388
348
332
330
334
339
352
352
348
348
351
354
339
368
479
376
350
354
360
372
391
417
432
439
421
371
339
338
332
330
334
343
333
332
332
337
335
269
547
449
336
342
346
354
375
397
416
425
426
385
339
317
318
320
331
340
340
336
342
346
351
332
436
457
377
360
361
376
388
410
434
446
446
423
373
346
341
344
348
359
358
356
354
357
361
356
321
512
401
355
360
365
380
395
421
437
441
416
368
336
325
320
326
325
340
332
332
336
338
337
283
534
445
337
334
346
352
374
396
415
424
418
380
336
318
316
318
329
345
338
337
344
347
353
336
432
469
375
359
363
371
386
404
430
444
445
419
367
337
338
338
342
353
350
345
350
351
355
348
306
509
398
347
350
357
367
387
415
435
440
419
368
336
327
324
325
322
334
332
328
334
332
336
327
370
445
357
331
337
342
358
376
401
415
421
395
346
311
305
310
316
322
338
331
334
341
345
347
311
513
464
357
352
356
370
385
411
430
443
442
408
357
336
333
335
337
341
356
352
350
352
353
357
341
388
479
375
353
354
361
376
392
419
436
437
415
366
335
329
325
332
335
331
350
344
342
345
347
348
314
470
452
351
339
339
350
366
388
413
422
425
399
349
322
317
316
322
321
327
339
336
335
337
340
343
264
565
434
347
350
362
372
391
415
436
443
435
389
348
337
331
336
337
344
346
353
351
354
356
354
357
278
562
432
354
354
358
372
387
413
430
440
431
389
351
338
340
339
335
341
343
347
341
346
342
342
348
263
555
431
341
345
352
357
378
403
417
427
421
379
336
321
314
326
321
329
334
344
335
339
344
347
347
282
520
421
351
357
364
375
393
417
435
441
429
384
347
336
335
337
344
345
356
356
349
351
354
357
349
345
490
391
353
355
364
374
391
417
435
443
423
379
343
336
334
334
337
339
340
347
346
344
344
348
346
297
518
455
344
338
341
354
367
386
410
419
420
395
343
316
311
309
316
317
328
335
326
327
335
339
342
261
572
444
343
348
358
368
385
410
428
438
429
390
345
329
328
333
336
341
341
349
349
348
348
352
351
313
491
470
359
348
351
361
373
395
418
432
433
410
358
335
329
331
332
332
335
337
351
343
347
348
347
353
271
566
450
346
350
356
364
379
405
422
435
433
395
352
332
332
330
330
333
336
337
349
343
347
346
348
348
265
555
437
342
349
353
362
380
403
423
431
424
387
347
327
322
327
327
336
338
351
353
347
350
356
357
309
551
473
366
363
368
376
393
415
434
447
449
418
369
345
340
342
346
352
352
362
359
356
358
364
361
327
480
478
366
356
359
368
376
399
422
436
439
414
368
340
330
334
335
337
338
341
350
343
345
345
348
351
268
559
439
347
352
351
359
375
401
419
432
425
393
347
332
326
330
334
333
338
339
348
346
340
344
345
346
268
551
434
339
334
342
352
367
387
410
420
417
388
342
323
326
325
329
335
345
336
336
340
341
348
291
527
455
346
349
353
359
371
394
416
428
427
398
349
329
326
329
330
335
344
337
338
344
345
346
276
516
416
346
349
356
363
381
403
424
441
427
387
346
331
330
334
333
343
334
336
335
338
341
284
524
445
337
338
340
350
363
388
405
420
418
387
333
313
308
315
317
331
318
318
322
322
328
268
539
433
321
321
331
342
361
384
407
417
421
387
343
331
324
335
347
355
348
346
351
355
360
276
598
464
358
366
368
380
396
422
439
448
442
399
356
343
343
342
352
350
349
352
353
353
356
275
575
453
350
353
357
369
385
407
432
440
431
392
343
323
322
319
320
330
327
326
329
332
335
326
313
451
374
331
336
344
357
379
403
416
422
403
355
320
311
310
314
327
328
322
324
335
334
341
282
524
420
351
359
361
379
401
424
440
450
434
385
346
342
345
352
364
356
356
359
364
365
328
508
485
370
362
363
371
385
414
433
448
445
412
361
339
338
337
337
341
347
342
340
345
345
345
262
554
421
342
347
353
361
378
403
422
431
417
374
328
317
315
306
316
324
322
321
324
322
327
310
378
435
348
326
327
343
355
376
398
413
415
390
338
311
308
305
311
325
329
317
322
327
329
325
328
469
386
343
350
364
376
399
429
445
449
425
376
346
345
341
347
361
361
358
353
361
362
348
414
489
382
360
362
372
382
406
430
447
447
421
372
338
338
334
340
343
346
339
342
344
344
348
278
525
403
339
343
347
356
379
400
415
423
408
356
319
314
304
314
311
319
321
316
321
325
325
314
358
434
360
326
330
339
354
376
405
413
424
404
357
324
324
325
336
339
356
352
346
352
357
359
317
529
480
367
361
365
373
390
409
433
447
448
416
368
341
337
340
344
350
364
353
354
357
355
356
268
588
448
350
351
362
367
381
406
425
431
421
371
329
319
314
318
319
325
330
324
322
333
334
328
302
462
376
332
333
342
357
380
398
415
424
400
355
316
312
317
318
330
338
344
339
343
349
353
311
522
467
361
358
362
371
388
413
436
447
447
418
366
342
341
339
343
353
356
352
354
359
358
328
468
489
367
358
358
363
378
396
423
438
435
402
350
325
325
315
320
323
324
323
322
326
325
313
367
425
348
324
329
334
349
375
396
407
415
390
341
313
312
313
321
335
332
333
337
342
343
289
538
459
351
350
354
367
381
403
424
441
436
402
352
336
334
336
337
349
348
346
349
352
353
313
502
473
359
355
358
367
379
403
428
442
446
416
362
341
335
330
328
332
334
325
329
332
337
338
263
514
407
330
336
340
350
367
394
414
419
405
363
329
309
313
317
322
330
333
327
330
335
338
298
518
455
357
350
361
372
389
413
432
448
445
413
365
345
343
347
352
364
357
355
355
357
363
303
552
475
359
356
362
369
383
403
429
437
438
400
352
332
330
329
330
334
343
338
340
340
344
341
301
484
384
342
350
351
363
377
400
418
422
403
357
320
313
316
310
313
325
323
323
334
329
333
272
521
441
331
335
343
351
364
386
404
420
418
385
336
314
315
320
332
345
336
342
349
353
362
280
592
461
367
368
376
386
401
424
442
451
440
398
355
344
343
346
358
358
356
355
358
359
338
427
473
373
353
359
364
378
397
419
430
435
408
359
336
330
329
335
343
341
339
342
347
351
295
519
462
344
342
345
354
366
383
409
420
416
386
337
312
312
314
316
325
318
317
321
323
325
245
543
421
326
328
334
347
364
387
407
414
407
364
322
310
308
320
329
348
338
343
349
355
358
274
585
456
363
363
372
382
400
422
440
452
440
394
357
345
343
345
352
357
352
352
355
355
353
297
523
401
354
355
363
373
388
410
429
442
418
373
336
330
326
325
325
334
327
322
331
333
330
258
496
401
327
335
343
357
376
403
424
431
423
377
342
330
330
332
340
348
343
343
346
346
346
285
490
404
345
349
356
367
386
410
428
432
418
374
339
331
331
329
341
342
341
344
347
351
304
507
475
354
352
361
365
381
399
421
432
429
394
348
328
320
318
327
331
325
325
328
331
332
265
486
401
326
340
339
358
372
393
411
419
402
358
321
311
312
320
332
338
328
336
339
345
327
437
458
379
359
364
374
388
411
433
443
445
416
364
343
341
348
352
363
355
353
357
358
359
286
535
422
354
358
363
377
392
414
430
438
424
375
341
334
333
333
339
346
338
340
344
346
342
306
478
383
341
345
353
362
383
408
426
429
410
364
331
317
317
315
315
326
327
328
330
330
331
281
511
439
326
329
332
344
361
386
399
418
412
381
337
310
312
311
316
327
332
328
328
333
339
308
478
454
358
347
357
370
385
409
426
440
441
412
364
342
342
342
351
361
355
348
356
356
361
274
588
462
354
359
363
371
386
412
433
438
431
389
348
328
327
332
335
338
345
343
338
340
342
337
317
468
373
338
340
348
358
383
406
422
425
409
364
332
320
320
323
324
331
335
329
336
330
330
283
499
444
334
331
334
346
360
385
406
417
415
381
340
313
310
310
319
321
334
329
323
332
331
336
254
528
417
334
337
347
357
381
408
427
436
423
379
341
333
331
336
343
354
353
348
354
358
360
300
565
478
362
362
363
373
390
412
430
440
435
401
351
335
337
338
342
343
352
348
346
351
353
355
294
535
470
343
339
344
354
361
383
406
416
413
375
329
306
304
304
308
310
318
315
309
316
318
318
240
547
419
312
315
322
333
366
386
389
402
402
358
320
312
307
309
335
350
343
342
361
337
349
318
496
470
363
357
366
366
385
406
434
440
444
411
354
332
332
333
334
339
340
335
339
336
346
295
519
465
343
356
339
356
370
398
422
435
435
409
352
338
329
328
332
329
345
343
343
349
347
351
279
574
456
345
348
353
363
380
403
415
430
427
379
345
328
332
328
328
327
344
338
337
337
340
339
272
542
440
332
333
341
346
357
379
394
396
394
355
312
289
291
277
286
289
302
287
289
289
300
279
202
493
384
281
294
305
309
325
351
371
367
376
336
289
283
275
289
295
316
314
314
328
317
325
260
569
448
345
346
355
366
395
413
431
447
433
401
357
336
348
341
345
364
358
352
351
364
361
277
590
449
352
356
360
373
389
418
432
437
427
379
343
327
330
331
333
332
352
348
341
344
344
349
271
563
443
335
341
346
361
376
399
422
434
431
393
353
338
337
338
336
345
349
358
358
359
362
363
347
400
479
378
357
365
366
379
398
415
435
439
415
372
343
335
337
334
341
347
347
343
344
351
351
297
543
449
352
356
359
372
393
413
436
442
445
410
368
349
348
351
355
363
374
366
361
363
368
369
286
584
452
367
366
369
382
396
420
437
445
432
390
349
340
336
339
343
355
351
347
349
353
356
312
504
467
357
352
357
364
379
401
421
433
432
407
362
339
336
332
336
332
339
342
337
337
340
344
337
360
461
380
347
348
363
369
394
413
427
432
404
362
329
316
320
322
325
338
337
334
334
337
346
312
484
455
363
352
360
370
389
407
429
437
441
408
363
339
335
339
343
353
360
353
351
355
358
361
281
558
430
356
360
366
377
397
417
434
443
426
381
345
336
334
338
339
339
345
353
344
347
349
352
340
361
466
375
345
347
357
367
385
410
423
430
416
369
334
327
326
330
332
330
334
347
343
347
346
348
343
303
487
389
342
340
345
357
374
397
412
417
402
360
323
315
316
316
318
317
324
332
324
330
331
336
320
401
423
361
337
347
348
362
383
405
419
422
400
357
327
323
325
332
343
355
350
351
352
357
360
325
510
470
365
361
363
370
387
408
430
438
441
411
365
341
339
339
341
346
358
350
349
351
354
356
313
494
470
355
351
355
361
376
398
421
432
434
409
359
334
332
327
327
331
331
346
336
338
340
342
346
262
545
423
338
340
348
361
378
404
422
428
418
378
338
323
319
322
324
338
344
338
335
342
343
351
293
502
420
355
361
370
385
403
424
443
444
429
384
348
340
337
343
344
357
354
348
352
354
357
334
446
472
372
360
359
368
379
399
423
441
439
412
364
340
333
333
335
334
343
345
343
343
346
348
338
359
468
376
350
355
358
375
394
414
433
436
415
367
339
326
328
329
327
332
346
343
341
343
344
347
280
554
445
338
344
347
362
370
394
408
420
415
384
338
319
315
319
324
330
346
347
342
348
351
358
311
543
463
363
355
363
372
387
409
434
444
444
410
358
339
334
336
338
351
349
345
346
351
357
354
322
501
396
353
355
361
373
391
415
432
439
418
369
336
328
330
329
332
335
346
342
341
342
344
344
261
560
427
338
342
348
361
375
399
425
434
427
384
338
325
327
322
323
319
328
335
331
333
335
339
338
269
509
405
335
339
342
356
378
406
425
427
418
369
328
317
311
319
320
335
341
334
336
337
344
346
281
576
459
352
359
367
378
391
417
437
445
439
398
353
338
332
334
341
352
351
345
346
351
354
332
427
463
369
353
358
364
379
402
426
441
442
414
362
336
332
332
334
336
342
348
344
344
346
347
348
299
494
393
344
347
352
362
384
408
426
430
412
363
327
318
313
315
316
316
321
332
322
323
325
324
326
247
518
392
320
321
326
336
357
378
399
403
395
350
308
292
291
290
292
294
295
311
310
309
315
312
318
255
537
424
321
325
333
345
360
388
405
418
418
386
340
320
318
322
329
336
352
349
345
352
357
362
313
533
469
366
360
368
376
392
416
439
452
448
413
363
340
337
338
342
351
359
353
354
356
356
360
278
573
438
355
354
361
370
388
415
432
441
433
388
344
334
329
330
331
334
346
340
338
339
339
340
264
555
440
337
340
345
359
372
392
416
424
419
377
333
314
311
315
322
321
328
339
331
335
342
340
343
275
544
431
351
358
366
379
396
423
438
442
431
390
348
334
336
335
343
353
354
347
348
353
355
348
359
486
388
354
358
365
376
399
424
441
444
417
368
336
333
331
337
336
350
340
340
344
340
342
290
514
451
339
340
343
348
364
383
408
415
416
378
337
311
309
311
313
315
331
324
327
328
333
339
300
468
451
359
345
345
353
369
391
405
419
415
394
341
318
308
315
319
319
321
315
315
314
322
307
335
443
341
311
312
318
336
348
377
392
391
364
316
285
283
283
286
292
306
301
308
311
316
323
239
533
402
324
326
337
343
360
381
404
417
408
361
323
309
310
307
315
326
327
332
336
342
352
319
465
441
375
339
344
359
368
391
419
424
435
411
357
324
313
322
322
339
329
319
332
335
334
294
448
460
315
312
307
304
329
346
368
389
378
344
306
268
278
271
286
289
305
309
288
312
303
241
549
438
331
327
334
353
372
410
409
428
430
381
366
353
344
347
345
357
362
365
344
367
363
276
614
476
346
372
363
386
393
418
436
453
442
397
353
335
341
351
350
373
367
371
365
364
371
353
420
504
385
372
380
388
396
423
440
452
454
431
386
352
353
353
358
356
355
356
341
327
329
328
336
274
543
435
366
371
380
388
398
414
430
438
442
418
368
354
345
344
337
336
333
323
317
321
322
320
322
407
372
329
324
330
343
361
378
383
399
382
349
310
303
306
314
329
328
334
324
339
349
291
541
457
358
354
360
374
387
405
424
428
423
433
402
308
340
352
361
372
356
361
374
365
358
301
505
417
356
361
365
379
400
421
433
437
427
383
352
341
342
344
352
352
341
350
346
343
306
456
425
343
337
334
354
362
393
408
409
407
384
348
317
316
323
339
353
356
349
357
358
359
298
550
460
361
360
369
380
392
414
429
436
430
396
356
339
338
341
345
353
356
347
350
350
355
301
549
461
362
362
366
377
391
411
431
440
438
408
374
356
348
346
353
360
346
344
338
339
329
350
431
360
336
341
342
355
369
390
396
401
379
334
312
306
313
317
327
319
318
319
325
330
261
537
428
339
348
354
370
389
411
427
433
422
385
351
338
342
346
353
361
348
353
354
353
340
400
454
377
360
366
370
384
405
425
432
437
415
371
345
343
343
346
349
356
349
348
353
353
356
293
515
413
350
353
359
373
387
414
427
430
418
376
340
332
322
322
326
332
331
324
330
325
327
264
530
417
325
325
