294
293
295
302
288
272
270
267
266
264
255
350
276
270
258
264
270
272
282
294
304
314
307
291
262
243
243
250
259
258
240
235
242
243
247
254
243
385
264
276
276
290
307
322
344
363
377
384
376
356
322
305
306
317
331
319
310
313
318
323
327
319
454
350
358
355
362
369
375
382
393
403
407
404
384
356
343
344
351
360
348
333
332
336
336
336
339
300
584
332
341
343
351
361
366
379
400
404
407
404
377
348
337
342
356
364
345
340
336
341
346
347
336
480
348
361
351
358
370
385
392
407
433
426
431
375
373
355
343
365
377
365
357
347
364
342
352
358
331
542
356
374
376
363
369
392
411
400
433
446
425
387
370
352
358
362
374
360
332
352
346
323
338
349
326
534
368
357
370
376
377
392
383
412
414
429
428
384
375
398
374
382
380
344
349
338
343
344
357
372
441
378
364
359
359
377
377
389
419
427
420
394
370
346
332
344
340
335
330
305
315
313
340
319
309
469
311
329
317
322
344
334
345
358
373
392
389
354
321
326
310
323
321
321
299
293
298
295
303
315
284
550
295
317
312
321
323
337
364
371
397
396
400
362
340
321
332
322
344
360
339
324
326
327
332
327
336
333
474
356
340
348
363
367
379
398
409
424
428
401
363
352
344
341
346
353
352
362
359
347
346
352
352
349
353
358
469
346
356
343
365
373
386
403
413
428
422
418
367
340
333
328
340
347
352
356
344
340
348
336
334
330
371
373
336
328
332
332
355
359
356
378
394
400
367
340
313
314
324
312
320
316
324
292
284
282
280
287
286
249
535
284
278
282
288
291
301
311
330
334
337
318
283
255
246
245
256
262
275
269
248
253
256
269
277
272
362
328
305
293
295
306
312
326
341
367
381
382
356
328
312
308
307
313
324
332
315
310
314
316
318
321
279
598
339
333
340
349
362
369
389
414
425
434
423
397
366
354
354
356
354
365
369
347
348
347
345
348
329
507
343
351
344
351
354
365
380
404
420
426
421
389
356
344
340
344
352
370
360
343
340
343
346
348
325
555
356
356
355
363
372
382
403
428
444
449
447
410
376
360
357
354
366
381
370
356
352
356
352
352
353
317
589
374
357
362
371
376
385
398
416
425
425
414
375
353
343
343
344
349
361
359
336
336
338
351
339
340
390
397
354
341
347
357
365
375
390
409
416
417
396
359
341
335
334
339
349
360
349
339
341
338
341
345
311
561
366
345
347
357
363
373
388
406
418
417
405
367
343
334
335
344
355
360
345
339
342
342
346
340
389
415
366
354
357
362
375
384
402
416
420
422
402
365
346
338
341
352
358
344
336
337
340
345
341
342
378
391
355
340
346
350
353
364
380
388
395
396
374
337
314
305
313
331
317
298
298
296
299
299
298
346
361
321
308
312
320
328
343
360
380
380
381
360
328
314
309
320
338
328
317
317
319
322
322
327
300
551
351
333
340
350
360
364
379
399
410
413
400
366
341
336
337
346
353
338
332
334
335
337
340
336
398
395
358
347
351
359
367
379
392
408
418
417
400
368
349
344
347
355
366
353
344
344
347
349
351
347
409
398
369
355
360
365
373
385
406
418
427
425
415
378
361
351
355
359
366
348
337
338
342
343
344
346
361
434
361
344
354
354
365
372
390
407
414
417
397
366
341
337
345
364
356
339
340
338
339
342
345
311
544
360
339
346
352
362
370
387
403
411
413
396
362
339
333
342
355
348
333
331
332
333
336
339
309
573
339
346
346
353
360
368
382
397
412
417
410
382
353
340
340
349
362
344
335
335
337
339
339
344
314
544
359
344
349
354
361
372
385
402
412
418
401
371
346
343
344
353
362
347
339
339
341
346
347
349
391
403
365
353
360
366
373
386
401
421
424
424
403
372
352
347
349
372
360
342
342
343
348
347
350
320
595
343
354
354
360
368
377
391
407
418
423
410
384
350
338
343
351
360
340
334
333
332
332
334
310
528
332
345
339
344
352
360
374
389
405
410
405
376
350
336
330
335
345
352
332
326
324
328
325
326
285
564
334
331
332
334
349
355
375
394
404
407
401
362
330
319
316
326
342
346
333
332
331
336
341
345
306
583
347
346
348
351
362
370
384
406
417
423
415
384
355
344
340
349
354
362
338
331
330
332
331
334
292
598
349
340
346
350
357
362
376
396
410
415
404
370
345
336
331
331
338
347
340
328
327
331
334
336
338
295
596
358
341
346
353
359
366
379
396
413
420
414
377
355
344
342
345
346
347
353
345
337
339
338
340
341
327
513
337
351
348
352
359
364
379
398
414
420
419
393
359
342
337
340
348
359
364
344
340
345
347
349
350
312
581
363
348
350
354
362
369
383
402
416
416
399
364
339
331
329
334
344
351
337
327
327
325
327
330
318
439
347
341
336
339
346
353
365
382
400
409
410
386
350
337
330
334
336
343
350
339
328
331
334
335
338
331
415
371
354
345
352
357
365
376
391
408
419
422
397
363
345
342
342
340
341
343
360
352
340
343
342
343
349
334
477
345
355
354
357
363
372
382
402
416
426
428
398
366
348
339
341
346
357
364
342
335
336
341
338
344
335
436
359
357
346
351
359
363
376
391
408
417
412
388
351
333
326
329
338
352
335
323
326
327
326
327
330
319
496
352
337
341
348
354
362
379
399
408
409
390
355
334
328
328
332
336
350
336
324
326
328
329
330
325
395
375
346
338
338
345
352
362
379
398
409
414
386
349
330
325
327
330
326
335
347
332
326
325
324
327
330
290
590
338
336
340
348
352
361
381
399
412
418
410
375
347
334
334
334
347
362
345
333
330
337
336
336
339
377
401
353
342
347
352
359
374
390
409
415
415
388
355
333
326
327
336
353
337
323
323
324
324
325
327
328
469
348
333
337
343
349
359
375
394
402
404
381
345
323
318
317
321
331
342
326
312
310
313
306
307
303
313
416
317
301
303
304
307
317
329
350
359
358
341
306
286
277
279
277
281
284
291
283
271
271
273
273
275
268
400
286
291
283
286
296
302
321
339
363
372
369
349
316
299
295
296
305
319
327
313
308
310
314
316
320
320
352
405
345
328
338
343
352
362
381
397
405
407
389
354
333
326
327
339
351
353
337
333
337
340
337
341
321
524
342
353
352
357
363
371
382
401
417
425
426
398
366
352
350
349
352
357
367
372
355
353
354
353
356
357
354
501
377
363
369
374
382
392
411
427
437
439
422
385
361
345
346
351
361
374
362
347
349
353
352
353
353
314
617
349
353
354
365
366
376
389
407
420
421
412
378
345
332
328
328
340
354
353
335
333
335
336
337
341
295
601
348
342
345
349
356
366
378
395
409
414
404
373
344
333
332
332
341
347
364
350
342
344
348
345
348
336
502
351
360
360
367
374
382
393
411
424
432
433
407
374
355
349
349
354
363
371
349
345
345
340
346
348
344
444
362
358
349
354
361
368
379
400
415
425
421
395
361
340
333
338
346
363
347
337
335
337
339
338
339
335
484
362
346
348
357
360
368
385
399
409
411
393
358
336
326
326
328
334
347
333
322
326
325
328
331
331
349
437
349
333
337
346
354
366
382
402
416
415
397
367
338
332
333
334
343
355
346
331
332
335
337
339
338
388
393
362
351
359
363
372
383
405
417
428
430
410
376
351
347
345
356
364
371
351
343
345
345
348
350
307
614
358
353
353
360
367
376
389
405
419
423
412
375
345
334
331
337
345
352
334
329
330
333
331
335
333
366
417
351
336
340
347
353
364
376
395
402
407
386
352
327
322
321
328
336
348
333
326
333
336
338
341
298
590
341
337
339
346
352
366
377
402
419
425
414
382
352
340
337
340
350
363
348
339
341
341
342
343
342
349
458
362
349
354
361
367
378
391
409
414
420
402
368
346
336
337
346
359
350
335
334
335
336
339
340
311
553
356
339
342
348
354
363
378
399
408
413
398
362
338
330
330
340
354
342
331
328
330
331
332
335
296
579
352
337
342
347
353
360
371
389
401
401
393
359
335
325
325
334
341
329
319
317
317
318
321
320
347
388
337
322
325
329
340
352
373
390
401
396
379
348
322
317
322
335
340
323
316
321
326
329
332
317
497
334
344
337
339
345
354
366
383
401
414
413
387
354
337
337
344
355
335
323
323
326
327
332
338
311
549
355
338
343
349
354
359
377
392
404
407
393
358
336
329
338
346
356
334
332
331
336
337
341
311
558
334
345
341
343
350
361
374
394
410
418
414
382
354
341
339
344
360
343
331
331
332
332
343
342
308
572
353
345
351
356
360
371
387
400
412
417
403
375
349
340
347
358
365
347
336
336
336
335
336
323
476
337
348
344
349
353
362
371
387
400
409
402
380
349
333
330
341
353
343
326
324
327
328
330
331
297
572
336
337
339
344
352
358
373
388
404
410
405
378
350
337
336
340
350
343
330
327
330
332
333
340
304
584
350
345
346
349
355
363
373
390
403
409
405
378
351
341
341
349
357
349
335
334
337
340
342
343
310
578
341
343
341
346
350
358
373
391
406
414
407
379
353
338
337
339
352
354
335
334
334
336
335
337
306
564
368
356
363
369
372
382
393
404
408
410
401
370
344
336
337
340
345
350
331
318
318
319
318
322
324
337
458
352
333
337
337
344
348
358
374
384
387
374
346
326
318
319
323
329
306
298
299
301
303
305
310
294
487
335
310
314
315
322
329
340
357
368
371
364
335
314
309
307
309
312
321
307
303
304
309
312
315
273
567
339
321
327
335
340
349
359
374
386
392
386
359
334
328
326
328
338
350
338
325
329
329
329
330
324
372
374
339
332
335
344
352
360
374
393
400
406
389
360
345
338
349
362
361
343
342
344
342
342
347
313
576
361
351
356
362
372
377
402
415
426
429
418
384
361
349
356
362
366
346
344
339
340
340
344
306
582
361
347
351
356
367
371
383
402
413
416
408
375
353
341
346
357
359
337
336
337
337
339
343
304
574
357
346
348
354
364
370
380
396
408
412
404
371
342
336
336
348
347
332
327
326
325
326
328
294
566
352
343
345
351
358
363
373
388
400
402
397
369
342
334
339
343
346
331
323
326
324
327
326
336
445
356
340
345
350
354
360
375
388
397
397
383
352
333
337
344
353
335
333
333
338
340
342
311
585
361
351
350
351
355
361
375
388
401
402
392
363
338
337
341
349
328
322
325
327
330
330
301
560
335
343
345
349
355
368
379
393
404
408
401
378
352
350
361
362
340
337
341
338
340
343
321
522
367
348
354
357
364
372
385
399
408
407
389
362
344
349
360
346
334
331
330
331
333
333
323
488
353
337
343
348
354
360
375
390
398
396
382
353
336
338
347
346
330
326
327
332
336
337
318
514
358
338
341
343
353
355
369
386
397
396
375
348
328
321
330
338
322
314
318
325
327
330
293
565
342
336
339
346
354
365
379
397
407
408
395
365
344
344
352
358
342
335
333
336
339
339
336
467
362
344
349
355
361
371
386
400
406
405
384
351
335
337
347
346
332
328
331
330
328
331
333
456
352
338
343
348
357
367
383
395
405
405
386
354
337
334
341
356
348
335
335
337
337
341
315
535
340
349
351
354
362
369
380
395
411
414
410
386
357
348
337
340
353
354
336
331
335
335
342
336
408
373
355
346
346
356
361
376
390
404
412
410
385
355
339
335
348
366
361
338
335
341
339
343
314
559
337
344
344
347
353
362
375
392
404
407
395
365
338
323
330
344
347
329
324
325
327
326
326
375
391
351
336
340
344
351
363
381
398
406
405
377
347
330
325
331
341
345
328
323
326
325
332
319
450
347
346
338
342
348
356
370
385
402
415
408
379
349
334
334
333
341
350
337
327
327
332
334
338
299
580
346
339
339
340
348
357
376
395
407
408
394
363
332
327
332
340
357
343
313
321
328
331
336
306
501
366
330
341
340
354
362
377
395
409
405
380
350
327
324
333
344
347
331
328
329
327
332
300
549
349
344
345
348
356
364
374
394
407
412
400
369
337
332
331
331
336
344
343
328
323
323
325
328
330
348
450
342
334
332
341
346
358
366
390
402
403
384
351
334
315
319
324
322
334
321
317
326
324
330
327
343
399
344
336
333
345
360
371
381
392
397
391
375
351
322
323
329
345
346
331
329
334
341
351
311
564
354
359
338
343
349
355
371
389
405
412
402
368
334
322
321
329
338
324
311
315
315
319
317
289
501
342
315
318
326
331
345
360
377
383
386
362
324
309
302
303
316
324
308
298
301
302
301
306
259
564
338
312
316
323
327
337
352
370
382
383
371
340
314
310
310
314
322
330
313
305
305
308
309
308
354
383
337
325
329
334
341
352
366
386
391
396
375
346
336
333
334
340
348
339
325
322
326
331
334
309
554
338
347
343
351
358
365
381
399
416
420
413
383
354
342
335
340
351
361
341
335
340
341
346
341
425
372
363
346
351
359
364
374
393
406
411
409
380
346
328
326
328
337
345
326
318
320
320
322
325
300
508
349
329
333
338
347
356
369
387
399
399
382
347
330
324
322
323
328
340
332
322
322
321
327
328
296
555
343
338
338
344
350
358
369
389
403
414
408
379
354
341
340
338
339
344
351
353
338
337
339
345
349
331
512
347
360
354
356
366
371
381
402
415
427
422
394
362
347
342
337
336
343
355
350
337
337
342
343
346
315
545
334
349
343
348
357
366
378
396
412
418
410
380
345
332
326
326
332
341
350
334
328
331
330
332
333
309
515
357
338
343
351
358
367
383
402
411
412
393
358
338
331
330
332
332
339
355
345
334
338
340
344
344
321
526
366
348
352
357
364
375
392
409
418
421
404
367
346
339
335
337
343
353
343
325
329
332
328
331
297
565
333
337
337
342
349
358
368
387
400
402
394
360
333
320
318
319
329
341
330
316
316
316
317
318
311
417
347
340
328
332
336
344
357
373
392
402
401
375
341
325
321
319
318
321
331
343
333
326
328
330
330
332
292
571
357
337
341
348
353
361
376
395
407
412
400
366
339
333
329
331
332
339
343
358
350
341
340
344
346
346
311
569
365
351
355
359
367
378
395
413
423
427
411
376
354
341
342
342
352
358
365
344
341
346
343
346
347
340
483
365
354
355
360
368
378
398
414
422
422
401
361
341
335
331
338
351
357
340
330
332
334
332
335
338
450
354
336
338
344
351
364
382
403
417
418
392
354
333
325
322
329
337
349
336
328
330
329
333
334
288
595
346
336
337
342
348
353
367
387
401
405
395
360
331
317
314
313
312
316
328
312
304
304
307
302
304
261
545
324
308
307
316
319
326
338
354
369
374
365
326
297
290
289
286
296
313
310
295
293
295
297
300
281
482
301
321
317
323
330
342
359
377
396
405
399
372
341
322
320
323
332
349
337
325
327
328
329
332
311
493
329
342
339
346
354
362
377
395
413
421
417
390
356
346
340
337
345
357
356
342
338
339
343
340
335
433
363
359
349
354
359
368
378
395
414
420
418
389
359
341
334
335
348
362
357
340
341
342
340
344
332
488
347
359
351
356
362
371
383
403
419
425
419
391
351
339
335
336
348
362
349
336
335
336
335
334
320
464
342
344
335
342
346
353
362
381
397
406
406
374
340
324
316
315
323
332
333
321
317
319
322
322
320
329
433
341
325
332
337
344
353
367
386
396
399
379
344
323
316
319
327
331
348
336
329
332
334
334
336
300
560
335
343
344
350
356
368
382
402
417
424
420
386
356
340
335
336
346
357
360
340
339
341
345
346
338
437
366
364
356
360
369
376
390
405
421
425
425
397
361
345
339
342
352
365
363
347
342
340
342
343
345
345
479
367
346
351
359
368
377
390
411
422
423
403
368
341
335
336
337
343
353
349
334
334
335
337
340
339
363
431
363
344
350
356
364
374
391
408
420
422
402
368
345
338
339
340
337
343
347
359
344
339
343
345
346
350
330
503
368
350
354
359
366
375
389
413
419
426
408
373
350
341
339
339
337
348
358
358
342
342
342
343
347
342
411
375
358
350
354
362
369
380
397
414
422
421
401
363
345
335
336
343
348
359
347
336
332
336
337
338
315
515
337
347
342
349
353
360
371
390
408
416
410
378
347
327
324
324
326
333
345
334
324
325
326
326
331
286
581
344
336
338
345
349
359
368
390
404
413
407
372
345
336
333
333
336
340
348
330
324
327
329
334
335
298
571
338
339
340
346
350
358
369
388
408
414
408
378
345
332
326
325
332
341
349
332
329
331
332
333
333
310
506
353
335
340
346
355
364
379
400
416
417
400
366
342
333
330
330
336
343
358
341
337
341
337
338
337
314
518
328
346
345
353
362
366
381
396
410
417
412
384
352
333
329
335
338
351
358
345
335
337
342
344
348
318
564
343
356
354
360
365
372
382
398
410
415
407
376
346
330
327
330
340
351
334
323
324
324
325
324
286
569
334
332
333
340
347
354
366
385
398
405
397
365
333
324
322
326
334
345
329
320
320
320
321
325
306
488
337
341
335
341
347
353
363
380
398
408
411
381
346
338
335
336
345
351
345
329
329
333
332
337
335
348
422
353
339
343
350
360
373
383
405
407
408
387
355
334
330
335
346
360
351
341
338
341
343
346
316
557
349
359
359
366
375
381
395
411
426
430
426
396
362
348
345
353
366
357
341
339
341
343
341
337
388
405
357
339
342
347
350
359
376
397
406
408
386
347
329
330
328
334
339
327
316
320
320
322
321
277
575
342
327
332
341
350
359
372
390
404
405
391
356
334
326
328
334
346
330
318
319
320
320
324
284
587
348
334
337
344
349
352
365
381
396
398
389
358
331
318
319
324
331
308
300
302
301
302
303
262
554
321
308
306
310
315
322
334
349
359
365
353
317
288
277
278
287
287
274
272
276
281
282
285
251
509
286
286
289
295
304
313
325
346
362
375
372
345
313
296
306
317
320
306
310
315
323
326
331
296
575
325
331
329
339
346
357
374
392
408
414
406
377
348
333
338
347
348
329
325
328
328
333
338
299
591
343
343
346
352
359
366
376
393
404
410
402
371
344
335
341
350
363
346
338
339
339
341
347
349
341
494
374
360
366
369
375
381
395
408
417
422
405
374
353
348
352
361
372
357
344
343
341
340
342
342
370
426
368
353
354
357
359
368
386
403
414
414
393
358
334
323
319
318
317
326
314
305
303
304
306
309
266
553
307
311
310
315
321
330
343
359
371
372
363
337
305
290
290
298
306
318
302
290
291
296
298
304
284
502
304
326
320
325
334
341
355
371
388
395
391
363
334
319
317
320
332
349
339
327
330
332
331
335
335
370
412
360
345
350
356
364
373
392
410
420
421
399
362
345
339
338
344
352
364
350
343
346
347
350
353
317
578
351
358
360
369
373
380
391
413
428
434
431
396
368
354
348
342
350
359
369
355
352
353
355
356
355
316
578
361
357
361
366
378
381
402
409
421
428
411
378
353
337
339
355
364
368
356
351
340
349
354
348
423
408
372
365
361
367
371
384
399
421
426
423
391
352
335
322
329
337
350
335
330
345
321
327
331
295
590
353
339
346
349
360
364
386
400
407
412
404
372
333
329
328
339
349
347
335
335
336
336
339
339
324
502
365
344
351
352
358
370
382
405
416
419
400
366
344
336
334
337
346
359
348
339
339
342
343
344
324
521
340
356
355
358
364
372
381
400
419
429
424
401
367
355
347
347
347
349
357
365
350
348
349
352
353
353
323
578
361
354
354
362
364
375
390
403
416
416
405
370
343
328
327
335
343
354
334
324
320
317
320
319
287
566
323
326
329
332
336
345
349
376
399
404
398
360
322
308
306
316
328
340
315
309
311
314
318
319
286
554
341
319
321
328
338
350
367
388
401
403
385
351
326
315
316
325
334
329
313
312
318
322
325
324
376
395
348
332
339
345
351
366
383
401
415
414
393
360
343
338
342
351
368
357
349
350
347
346
347
343
443
382
363
356
360
366
376
388
400
422
430
425
401
363
343
333
332
338
347
345
329
323
322
325
323
316
400
348
331
314
318
320
331
342
353
372
380
380
351
318
299
291
293
300
314
305
291
295
299
301
309
308
364
374
331
315
324
329
338
354
372
393
404
405
385
347
328
325
327
338
352
347
335
335
338
340
341
343
321
534
368
346
354
361
368
381
394
412
422
429
414
381
359
349
347
349
354
367
358
346
345
348
352
351
336
486
360
364
356
362
362
368
379
394
408
416
415
391
357
342
337
336
335
337
347
346
329
332
332
336
343
328
470
351
348
336
342
349
355
368
388
403
420
417
395
357
338
331
329
334
342
349
327
324
326
329
332
330
294
586
325
333
333
339
347
352
370
388
398
401
392
365
335
314
318
322
321
331
317
318
310
318
324
323
278
578
326
313
317
309
321
330
334
360
367
366
357
318
274
268
260
261
259
267
258
240
234
233
247
231
221
407
253
249
245
249
251
260
271
287
301
317
318
299
273
260
262
271
274
281
292
274
273
277
278
288
295
263
544
328
318
327
332
340
355
377
399
415
422
412
383
355
344
344
351
364
375
359
358
361
367
368
368
330
647
385
380
382
392
397
409
419
440
455
455
447
413
384
374
371
373
384
392
378
363
364
367
368
369
359
468
393
384
371
375
380
388
402
415
433
442
445
420
384
364
358
356
355
361
371
378
362
362
358
361
363
364
359
510
383
366
367
367
375
378
390
412
416
428
413
381
356
349
348
346
352
359
356
341
339
342
341
344
348
367
441
368
351
355
356
369
380
400
416
426
424
407
369
348
340
337
345
354
364
345
338
342
339
339
342
327
465
356
351
343
347
354
359
370
386
402
411
409
383
350
331
327
328
332
336
349
334
323
324
324
328
330
292
566
340
337
337
343
349
358
370
392
405
410
406
384
351
337
335
329
336
344
344
326
324
332
330
339
340
345
457
359
343
348
356
362
371
393
410
424
424
403
366
342
335
336
342
352
365
346
337
339
339
339
342
314
544
342
353
347
355
360
368
382
396
409
417
414
388
355
341
334
339
348
361
361
343
340
339
333
336
334
355
437
361
347
353
363
366
380
393
409
416
418
403
368
348
340
343
343
349
359
345
335
334
340
341
343
317
572
334
344
339
344
345
348
359
373
383
382
371
336
294
272
260
263
271
272
249
231
223
220
217
217
171
460
206
206
206
209
218
223
241
253
277
281
272
242
213
206
205
219
236
240
231
226
229
234
238
247
212
518
276
270
278
288
302
317
337
361
381
392
385
358
341
333
340
348
361
376
361
357
361
363
366
372
361
513
380
393
386
394
399
411
420
440
460
471
469
438
409
390
384
385
393
408
387
376
374
375
374
374
353
552
361
380
372
377
379
386
397
414
427
432
427
397
361
345
341
340
347
363
353
341
341
335
335
337
336
361
426
354
338
338
346
352
363
378
399
409
415
395
361
340
334
333
341
349
356
341
334
338
341
340
344
305
596
363
348
351
358
366
374
386
403
416
422
407
374
346
337
333
336
341
356
341
331
334
336
337
336
310
545
338
340
339
341
348
355
366
387
400
411
407
377
340
324
315
317
325
339
320
309
307
310
310
308
299
403
313
313
308
311
324
331
339
356
370
380
377
357
320
298
297
300
309
324
316
304
306
308
314
316
317
369
378
344
332
334
345
354
365
384
398
410
411
392
353
335
329
331
338
351
350
339
343
345
350
350
352
318
580
370
357
359
365
373
383
400
412
428
435
420
388
364
354
353
356
364
376
356
351
354
354
361
360
319
625
369
366
368
372
376
382
400
420
433
438
427
393
359
346
338
346
356
365
347
340
339
344
345
344
308
585
339
347
343
350
357
367
378
396
414
417
413
379
347
335
330
332
342
359
347
337
338
340
342
342
336
430
376
360
348
353
358
362
374
390
407
420
418
398
363
341
338
337
353
349
339
327
326
331
332
339
327
446
344
343
336
338
343
352
365
386
403
414
418
393
361
342
337
343
355
366
351
343
344
347
349
351
307
597
365
354
349
360
369
376
396
412
425
432
415
378
353
337
336
343
352
354
337
333
335
336
337
340
321
521
349
348
345
344
352
357
366
383
399
406
406
381
350
334
330
337
341
352
339
328
328
330
334
340
305
549
335
337
335
341
348
359
375
393
412
418
412
382
347
332
331
335
344
363
356
341
339
340
337
342
344
320
548
361
348
351
360
368
382
394
412
420
423
407
372
346
339
339
348
363
352
335
334
336
335
339
338
376
420
360
346
350
355
361
371
384
405
412
415
393
356
341
337
337
345
359
349
333
331
328
330
330
332
302
575
356
338
347
349
355
361
375
392
407
409
398
364
339
334
329
337
349
350
336
329
333
336
336
341
301
597
358
347
350
354
358
371
383
400
414
420
410
378
352
341
338
344
348
364
354
342
339
341
341
344
340
414
378
358
349
353
358
367
377
395
410
420
419
401
366
346
341
340
350
366
350
335
334
336
337
339
338
329
489
359
342
346
352
359
369
385
400
414
414
401
364
339
334
334
335
342
348
338
326
328
331
332
336
331
373
407
355
342
345
351
356
367
381
397
409
414
395
360
341
332
334
335
341
350
356
341
337
338
340
340
340
303
586
358
342
347
354
360
366
381
398
415
420
410
380
350
342
340
342
343
351
360
356
340
341
343
346
346
339
457
359
365
352
356
365
375
389
404
421
429
432
408
372
351
346
349
356
366
376
353
343
347
349
349
351
318
590
342
352
357
357
366
372
386
401
413
421
411
380
348
332
327
330
339
350
350
331
329
326
326
329
330
291
584
343
333
334
341
347
357
370
389
403
410
391
358
330
325
320
325
330
340
348
328
324
328
329
332
333
300
567
354
338
340
344
353
356
371
391
400
410
392
357
329
320
321
320
324
334
343
319
314
315
311
310
309
286
495
315
304
302
311
317
328
340
355
369
364
348
306
279
266
266
277
286
295
273
265
265
264
262
266
221
527
274
268
271
280
290
299
317
335
348
353
342
309
283
275
279
284
298
313
301
289
290
295
295
300
303
269
571
327
312
319
326
330
340
353
373
388
393
386
356
323
322
319
324
330
342
356
342
339
339
341
343
345
308
593
356
355
359
368
373
383
397
419
431
440
426
393
368
359
356
363
375
389
372
356
361
364
364
360
364
392
457
379
367
373
378
387
396
416
426
438
438
414
380
357
351
353
361
371
372
354
347
346
345
345
343
307
595
346
338
339
341
341
345
355
367
379
378
368
331
289
282
278
278
277
283
284
296
280
273
265
264
257
259
240
467
293
284
287
297
305
317
333
355
370
375
367
330
308
296
296
302
310
321
336
326
323
321
329
330
334
305
572
325
347
346
353
368
376
391
411
425
428
424
397
365
351
346
352
359
369
377
357
352
352
353
354
358
345
534
375
361
365
371
372
384
399
417
430
432
413
376
353
346
341
345
354
362
370
356
344
353
353
356
359
335
548
360
344
350
353
359
368
382
405
418
418
401
358
332
325
322
324
335
345
326
321
321
322
324
327
277
597
347
330
338
339
346
340
378
394
396
411
394
356
332
324
319
324
334
345
334
327
331
330
331
334
285
589
360
336
340
348
356
368
385
408
426
429
418
375
347
337
336
338
345
359
349
340
343
345
348
352
349
369
458
377
358
359
369
380
387
402
424
435
434
414
374
352
340
341
343
351
361
355
342
347
350
348
352
316
593
346
347
347
355
364
374
385
405
422
425
417
386
351
338
336
341
351
364
350
342
343
340
342
347
301
604
357
353
356
361
368
378
393
409
421
425
418
383
355
342
341
345
356
368
355
345
343
345
342
344
341
414
391
369
362
369
374
378
387
398
413
417
416
394
364
341
342
343
350
360
338
329
330
328
330
333
316
514
328
347
346
348
353
363
370
390
409
415
411
385
353
338
333
342
358
356
343
340
343
346
347
348
348
467
363
343
348
354
360
370
388
407
416
416
398
362
340
335
335
344
354
336
327
329
329
328
331
326
416
366
349
339
343
349
353
363
379
395
412
411
392
357
347
342
343
352
352
349
329
329
329
328
338
342
345
469
367
353
354
358
361
371
388
407
417
423
410
373
354
342
338
350
361
347
335
332
336
337
342
342
341
484
361
346
349
352
358
367
376
392
397
398
380
342
315
308
306
311
319
299
284
279
278
274
274
269
332
310
276
260
263
265
268
279
294
309
319
318
296
262
242
236
237
240
246
250
266
257
254
261
265
270
274
253
483
305
293
300
308
320
331
351
370
394
397
391
358
342
336
339
345
358
359
340
339
341
344
346
360
322
626
372
375
378
379
385
392
409
427
442
448
442
408
379
367
364
369
383
376
362
359
360
362
366
363
426
407
385
372
374
379
387
397
413
426
435
433
408
372
354
350
350
359
369
361
346
345
344
344
346
335
464
360
361
350
354
360
367
378
395
410
419
420
394
360
343
339
339
350
364
353
344
346
347
351
352
352
402
407
367
357
361
364
374
384
401
418
429
430
404
371
348
341
339
348
363
357
338
339
337
338
336
324
508
328
348
345
350
357
366
380
398
412
417
415
383
352
334
327
335
343
357
341
332
335
337
337
339
300
600
348
346
344
353
360
366
384
403
417
422
412
377
349
336
333
334
345
356
338
330
331
331
333
333
294
580
334
335
335
339
345
351
367
381
392
396
386
358
328
316
314
319
322
336
326
319
316
316
316
313
296
485
310
327
320
329
336
341
354
376
392
401
397
368
337
319
320
320
334
347
338
325
329
331
333
335
304
571
335
347
350
356
362
373
383
400
413
415
409
377
350
337
335
341
353
361
343
336
337
337
338
341
312
549
335
350
346
349
361
363
374
391
405
410
408
376
346
330
324
327
329
334
350
333
325
323
322
323
323
324
449
341
324
329
336
342
353
366
386
393
394
374
337
311
304
301
311
321
321
300
300
299
301
299
298
314
405
316
299
304
310
319
328
345
364
373
381
362
326
305
297
294
301
315
309
303
305
308
314
315
301
480
316
325
324
328
339
350
366
389
403
416
415
386
352
336
336
341
357
370
357
350
351
355
354
357
338
532
377
362
368
375
383
396
412
428
439
446
420
390
369
361
363
376
387
366
361
358
361
364
363
345
522
361
372
364
371
376
383
392
411
421
433
428
403
368
353
350
353
358
368
354
347
349
349
351
352
311
600
356
352
352
358
363
369
379
398
412
420
413
380
353
344
344
346
351
360
345
339
340
342
343
349
319
548
341
360
354
360
362
372
389
402
419
421
419
391
356
337
336
338
350
358
340
328
332
332
334
337
303
554
351
328
335
339
352
365
382
401
411
407
394
360
342
331
337
351
361
345
334
333
331
335
337
298
606
360
344
348
352
356
363
379
393
411
415
401
366
340
331
334
342
355
341
329
331
332
333
338
304
576
345
347
342
351
356
364
374
391
402
405
397
369
337
331
324
338
350
334
323
322
320
317
325
308
459
329
333
320
326
328
335
345
361
370
376
370
343
307
296
288
295
302
314
290
284
281
281
284
286
269
456
307
292
295
301
306
319
333
354
369
369
352
316
297
291
295
302
311
319
302
301
302
305
311
314
278
569
335
322
326
333
343
355
374
389
406
410
401
369
345
338
337
340
349
358
349
340
343
347
348
354
328
562
353
370
366
370
377
383
391
413
428
436
432
405
375
364
359
359
358
361
363
379
364
355
360
362
362
368
326
624
360
370
374
378
384
391
405
420
434
440
430
399
369
354
352
355
362
373
379
361
352
354
353
353
354
313
619
356
356
361
365
369
375
388
403
419
420
410
381
353
341
340
341
344
343
347
361
353
344
346
347
350
347
305
589
347
347
350
358
366
375
388
404
418
421
413
381
350
339
336
339
340
342
349
364
344
337
336
338
343
343
306
604
349
346
351
350
355
365
375
390
413
417
412
384
356
339
340
339
339
344
355
347
331
334
337
339
341
322
493
336
353
347
353
358
364
376
394
415
422
420
392
358
342
332
334
334
338
347
361
343
337
339
341
342
341
315
540
355
342
345
353
357
369
384
401
411
416
401
365
338
332
331
333
335
340
349
357
338
335
338
339
342
343
351
468
367
348
360
366
372
382
399
413
427
424
406
371
353
344
344
344
344
345
351
367
352
342
348
346
347
351
319
547
365
351
358
360
366
378
390
411
425
420
408
375
347
336
336
337
342
352
368
353
340
337
341
342
342
312
553
361
346
350
358
363
371
387
404
412
414
397
363
337
328
329
331
341
350
351
334
333
334
332
335
336
291
601
350
339
343
345
352
359
375
391
404
409
398
363
338
328
326
327
326
329
337
351
335
332
334
339
336
341
309
571
363
349
357
356
369
376
388
409
421
431
415
377
354
344
343
340
342
350
358
358
344
340
341
341
349
348
315
585
367
351
359
365
370
381
395
411
421
423
413
376
347
334
333
334
346
364
354
344
341
341
343
345
333
455
361
357
345
349
354
364
377
386
404
411
404
376
341
324
320
320
329
340
347
331
322
324
325
324
326
287
580
333
328
327
332
337
346
360
376
394
399
393
360
330
318
315
318
325
334
333
318
315
318
320
311
316
280
578
337
326
332
331
343
359
368
377
404
410
400
368
342
332
325
340
351
360
368
353
344
337
343
339
338
372
422
380
356
370
374
387
398
417
438
434
431
400
357
339
338
331
348
368
361
343
346
339
334
335
323
449
354
355
331
339
339
357
371
370
391
392
380
337
305
289
273
274
297
315
307
307
310
312
313
315
281
579
326
315
322
340
350
360
384
395
405
414
393
356
331
322
325
330
343
366
349
342
342
345
343
342
321
553
356
353
344
352
357
368
383
402
412
424
419
389
351
338
329
336
332
335
351
333
320
325
310
312
314
280
535
314
301
295
289
293
296
301
318
329
345
331
284
254
242
234
230
235
232
244
238
214
219
214
218
219
209
343
260
242
229
237
242
248
259
277
292
303
309
295
266
253
256
261
260
270
281
298
294
288
294
303
311
319
281
593
358
340
344
353
364
376
393
411
429
441
433
404
369
366
369
372
375
388
395
394
388
386
388
389
392
381
496
422
408
394
400
406
409
427
432
446
456
455
426
399
376
364
363
360
367
370
372
369
345
346
348
349
351
311
591
359
352
350
355
360
369
386
395
402
419
416
391
362
362
339
342
349
360
373
359
349
352
354
357
349
432
393
361
350
352
355
362
374
387
408
416
417
396
361
335
350
326
323
342
359
345
339
344
347
353
352
308
611
373
355
364
359
369
381
392
409
420
428
425
396
385
332
342
346
349
358
370
354
346
346
349
354
352
324
532
381
353
360
367
368
379
391
407
418
423
409
375
348
337
335
341
355
365
362
347
342
342
338
340
309
550
351
352
352
357
361
369
376
392
408
415
413
388
358
345
339
340
347
353
354
341
335
333
337
342
341
360
424
365
343
349
350
361
374
389
406
416
417
396
360
338
330
331
340
355
342
330
331
332
334
334
284
590
342
324
325
328
335
344
356
373
387
389
379
345
313
303
300
305
313
301
283
280
280
277
275
267
341
327
288
272
275
281
286
295
313
334
345
346
328
297
280
280
278
287
303
290
286
289
295
297
305
259
572
334
314
316
321
330
339
356
378
394
410
397
372
342
336
335
344
353
354
339
342
347
349
348
347
306
594
376
356
362
369
376
386
398
412
423
427
417
387
361
352
354
362
370
354
345
346
347
351
355
334
530
360
367
358
361
362
364
370
384
401
411
412
389
358
348
348
352
361
361
339
335
333
336
339
342
313
546
360
348
352
356
363
365
378
392
404
412
401
372
348
337
342
348
362
349
333
335
332
336
339
302
590
353
350
351
354
362
369
383
402
413
416
405
378
350
334
330
338
345
343
328
325
327
326
328
324
348
412
341
313
317
317
327
336
353
367
375
380
362
328
306
303
305
317
324
310
304
304
306
308
314
273
572
342
317
319
328
335
346
362
379
393
400
393
360
337
330
332
336
344
347
333
330
336
340
342
344
333
488
371
349
353
358
364
372
385
402
414
425
407
376
355
354
352
367
375
366
354
349
352
350
351
339
482
365
369
363
363
368
374
384
402
413
418
415
386
352
337
333
343
361
371
353
346
343
335
332
327
377
384
352
331
345
353
363
382
385
401
409
408
383
349
334
336
347
357
359
344
343
332
335
338
339
323
508
367
347
353
360
367
373
388
402
409
410
392
359
337
328
336
341
350
332
330
333
335
334
335
297
563
357
334
338
345
351
362
376
394
407
413
401
367
342
335
337
345
353
335
333
335
343
344
348
311
584
360
345
345
346
349
363
376
394
407
413
402
374
344
330
335
344
352
339
332
335
337
343
343
302
565
356
334
336
342
351
363
385
402
413
415
400
364
338
330
337
346
344
329
326
331
332
334
332
361
417
359
340
343
348
353
366
379
396
407
413
389
355
339
341
352
362
352
340
337
336
338
338
340
351
446
366
350
359
365
371
381
398
410
425
423
404
370
354
345
358
371
367
348
342
341
344
346
340
426
378
360
347
352
358
365
372
386
399
406
402
372
341
325
317
325
341
331
317
315
312
316
317
307
418
343
331
319
324
330
337
347
365
379
386
384
358
326
313
312
314
322
338
326
314
315
318
320
323
321
376
385
346
333
340
346
353
360
377
397
405
410
389
354
341
338
337
339
342
351
361
345
342
343
343
347
349
309
599
367
354
358
359
367
375
388
409
421
426
415
379
353
337
338
339
342
355
366
357
348
346
345
346
345
306
593
356
354
354
355
363
371
387
402
418
419
408
374
343
332
330
332
339
352
360
342
335
335
334
337
337
307
544
345
345
341
347
351
359
369
387
402
412
405
375
343
331
326
325
328
335
344
355
343
337
340
339
343
343
350
458
366
345
349
358
363
370
387
404
417
418
396
360
343
336
335
334
337
347
355
356
341
340
343
344
348
322
511
354
353
350
356
362
369
379
394
410
424
419
390
359
344
340
339
342
354
366
353
346
344
348
347
352
312
593
359
357
359
363
370
378
389
405
421
422
416
379
348
338
332
333
339
348
359
343
334
336
337
335
336
331
469
357
338
342
345
354
360
376
394
404
406
386
349
328
323
319
325
329
336
345
333
325
331
329
330
332
324
481
359
337
342
348
355
363
383
398
412
416
393
361
341
335
334
334
347
353
353
341
340
343
345
347
346
338
501
369
353
355
361
371
378
395
415
424
427
406
371
348
340
339
341
345
353
365
354
345
343
345
341
347
309
563
368
347
350
352
357
369
382
401
412
414
397
362
337
327
325
326
334
348
342
329
326
326
325
325
325
304
508
353
330
335
339
344
355
369
390
400
404
390
353
329
324
326
326
331
341
350
336
330
332
334
334
337
298
581
365
346
352
357
366
372
386
408
423
430
417
379
353
342
342
344
343
353
368
358
346
348
350
351
353
335
509
355
362
358
364
371
378
390
410
425
431
426
398
361
345
339
339
350
362
368
345
341
341
341
340
342
308
562
341
345
346
349
355
362
376
394
410
413
407
374
339
326
325
326
336
347
342
329
324
328
328
326
330
287
585
356
334
336
342
347
356
369
390
403
411
396
360
335
326
326
329
329
337
346
342
330
330
334
334
335
311
524
348
348
347
352
358
363
376
391
411
419
416
387
354
340
337
339
343
349
358
344
336
343
344
344
348
345
377
433
367
351
356
356
364
370
387
404
413
406
383
343
328
323
329
332
342
355
340
329
332
333
331
336
301
556
362
340
343
343
352
365
377
390
405
405
385
347
326
319
322
330
345
348
325
321
313
311
311
317
281
562
346
326
335
337
339
344
354
368
379
375
357
315
290
282
284
289
299
281
274
272
277
273
277
247
467
282
284
281
282
285
290
299
315
336
347
345
316
282
275
276
281
289
298
281
280
282
284
288
295
301
317
415
333
321
325
334
344
355
371
390
406
410
389
358
337
333
338
346
356
356
342
338
344
346
347
351
324
545
373
356
361
368
377
389
408
420
433
433
415
377
350
345
345
358
370
364
348
348
348
350
352
348
392
422
369
352
355
364
374
391
403
423
430
433
409
373
349
342
350
358
367
349
330
348
352
354
353
343
491
377
352
352
358
366
372
387
403
411
418
399
368
350
345
343
349
358
338
328
330
334
337
340
301
575
365
339
344
350
357
365
382
393
405
415
400
366
346
339
340
351
345
331
326
320
322
319
323
296
487
339
320
321
322
322
335
346
364
370
368
355
321
298
298
302
311
298
283
277
277
278
278
281
263
435
312
291
296
304
314
325
343
361
371
372
358
326
305
304
316
331
319
306
309
312
318
322
327
339
445
363
341
349
358
366
378
396
414
424
428
405
374
355
355
363
379
367
357
354
359
360
363
366
340
559
393
367
371
376
386
390
408
425
440
445
428
396
372
361
364
372
376
356
344
346
345
346
352
319
559
343
352
349
352
354
362
377
393
410
414
403
372
339
322
324
335
351
343
330
335
336
336
345
327
511
349
361
353
356
356
365
373
391
408
416
416
389
359
349
348
356
366
345
332
329
329
329
332
336
296
588
364
342
346
348
357
365
378
393
404
409
394
357
336
331
338
345
358
336
332
332
332
329
329
313
512
334
346
345
345
354
359
370
388
402
407
407
380
347
334
336
348
363
350
337
337
340
338
342
329
501
351
364
353
357
361
367
379
392
409
413
408
381
348
331
331
338
348
338
326
327
329
324
321
322
274
559
345
326
336
348
361
368
387
410
427
427
415
376
346
340
337
342
351
334
326
324
335
338
347
327
535
347
366
356
363
368
373
389
406
422
423
421
387
357
346
336
340
354
367
353
336
337
343
347
347
330
507
354
355
342
351
352
364
379
395
416
422
420
393
355
347
341
344
351
361
360
341
338
339
338
341
341
306
577
359
342
345
346
357
364
381
396
404
408
391
353
326
321
316
322
334
339
322
321
321
325
327
322
279
558
341
312
314
312
313
325
338
348
358
360
335
296
272
267
260
260
271
281
266
254
255
252
256
253
216
509
270
263
259
268
275
289
306
326
343
351
346
313
284
279
278
288
300
314
300
298
304
308
312
318
276
598
349
332
337
343
351
362
378
400
416
423
409
374
349
343
342
351
366
359
348
349
349
350
352
348
405
422
375
356
362
364
364
381
391
407
409
413
389
348
332
327
326
336
347
335
330
327
330
327
332
298
557
331
337
337
349
352
363
374
391
404
403
399
364
333
322
324
335
353
346
335
337
340
342
347
328
491
358
363
355
363
375
382
396
413
424
431
429
401
371
360
359
370
384
374
360
358
358
357
358
338
529
379
377
373
380
386
393
403
417
425
433
422
399
369
357
360
368
380
371
358
351
352
354
357
348
461
379
364
354
355
362
366
378
388
402
403
405
378
349
341
346
354
367
353
340
337
337
331
331
320
439
354
352
341
349
348
356
369
382
396
402
401
376
347
337
334
344
361
347
335
332
333
334
334
294
581
347
341
342
345
352
364
374
390
400
406
399
366
343
332
335
344
352
337
331
334
335
333
336
315
490
356
349
344
349
359
368
379
397
410
416
413
385
352
337
340
346
358
344
327
329
328
325
324
301
516
329
333
324
327
330
335
346
359
370
372
364
328
297
279
279
281
293
274
265
265
263
266
265
222
506
280
268
266
273
280
290
301
317
330
336
328
296
267
260
268
276
282
273
271
283
293
302
304
294
448
323
295
295
302
316
336
363
389
405
413
394
364
347
344
352
361
358
344
342
348
358
368
366
467
419
397
378
379
382
390
403
422
444
456
458
434
402
382
377
379
381
377
361
360
362
365
369
371
400
451
392
371
371
374
378
387
401
418
427
428
407
375
359
357
365
371
370
354
350
352
352
354
352
406
414
376
362
363
368
373
380
395
407
416
419
399
367
352
350
358
361
366
344
335
335
336
343
346
352
457
381
362
361
366
370
375
387
400
408
405
389
366
343
343
352
364
361
338
337
338
338
336
322
478
336
350
341
346
353
360
374
396
404
410
404
379
347
332
340
349
362
344
336
336
337
340
342
340
456
365
344
346
351
355
364
376
389
401
400
379
348
335
338
347
362
352
336
333
326
326
324
279
592
359
347
355
364
371
379
390
405
411
414
397
365
347
345
352
362
364
348
339
337
337
335
325
443
368
364
359
364
370
373
379
391
404
413
415
390
362
352
355
358
367
349
337
340
341
342
346
301
589
370
351
356
358
362
365
378
395
403
406
395
366
347
345
354
362
359
344
337
338
340
339
304
560
356
349
354
363
368
376
384
398
408
411
405
375
348
342
350
357
350
332
326
324
325
320
304
486
320
321
309
320
321
327
336
357
364
365
358
327
295
278
281
284
290
269
260
261
259
262
251
370
273
278
271
282
293
303
313
327
338
339
338
313
286
278
291
306
320
304
297
298
300
299
295
394
340
329
320
333
345
353
363
377
390
398
400
376
351
346
350
357
368
356
352
338
348
352
341
476
383
374
361
369
375
388
398
414
427
430
424
396
366
361
363
372
384
370
359
363
356
357
364
330
588
387
370
377
381
390
399
411
426
432
434
411
377
360
351
362
369
369
354
348
349
349
352
310
587
349
358
358
363
372
381
386
397
401
400
394
366
343
336
341
352
362
343
332
335
332
335
327
411
382
357
343
349
355
364
379
388
400
403
399
369
341
327
327
341
354
339
331
328
333
335
335
313
512
364
344
344
353
359
371
389
400
407
410
384
351
337
334
339
351
350
338
334
333
335
333
290
599
357
337
337
344
349
361
372
385
394
389
374
337
313
304
303
310
319
312
296
287
285
281
278
233
504
306
286
287
293
297
301
312
328
332
334
313
282
263
254
272
273
269
252
245
251
254
261
226
515
285
278
279
289
303
320
339
360
375
384
372
339
321
317
321
336
353
343
339
344
350
354
336
521
385
371
360
366
372
387
399
427
441
451
440
402
368
356
352
363
387
375
378
376
378
376
372
359
520
393
362
373
377
386
390
404
423
431
428
400
369
353
355
412
348
362
332
335
332
343
349
338
442
406
365
343
342
350
374
357
382
402
406
400
368
340
320
323
329
335
342
330
334
329
329
327
267
593
361
334
345
356
367
373
383
396
415
401
394
359
336
340
346
353
365
356
343
340
340
343
336
421
408
370
354
357
361
368
382
400
412
420
417
386
353
342
341
351
360
357
340
338
338
341
340
296
553
373
344
350
360
370
373
388
399
404
409
389
360
345
344
350
356
359
342
334
337
341
345
300
606
385
355
356
360
366
373
385
399
408
415
407
373
356
351
353
361
372
357
339
340
337
338
337
389
415
373
359
362
366
370
375
385
399
403
403
378
350
338
337
342
342
350
331
320
320
323
325
271
588
359
332
333
336
342
351
364
382
393
397
385
353
330
324
327
330
342
326
313
314
314
318
310
371
382
345
331
334
340
346
359
374
389
394
393
370
341
328
336
333
337
346
328
330
332
330
336
288
570
379
342
345
353
359
371
385
402
410
411
393
368
346
339
343
359
351
331
332
328
334
339
300
580
361
345
343
351
359
369
387
398
407
429
427
402
306
339
355
368
367
348
340
344
342
367
302
525
381
354
361
363
371
380
392
409
421
415
390
348
340
338
349
362
354
335
334
324
336
340
322
502
371
348
351
352
360
368
388
396
403
396
368
342
331
331
343
346
346
335
322
324
320
330
293
569
348
348
334
340
339
349
354
381
408
412
412
376
355
357
350
348
360
353
341
337
334
344
341
319
543
349
350
345
344
348
363
376
388
405
407
397
361
335
321
320
317
325
338
325
315
328
329
337
297
575
342
345
339
344
351
361
372
398
409
411
394
356
327
322
318
327
345
336
324
322
321
322
327
272
585
354
327
334
341
351
361
378
400
415
414
388
352
333
323
325
329
336
339
319
319
318
326
325
278
589
348
324
322
326
334
345
361
383
399
403
383
342
316
307
303
310
323
335
324
325
335
341
343
296
594
353
335
336
343
350
363
379
404
406
415
396
359
335
328
325
332
335
348
332
327
329
330
331
314
472
355
343
334
336
345
353
363
381
397
402
394
363
334
323
324
321
324
327
340
325
321
326
331
335
305
525
349
340
334
343
349
356
370
390
404
404
392
376
332
330
331
336
341
351
347
329
328
327
332
333
286
559
373
338
350
359
362
372
385
403
412
410
395
367
337
337
338
341
352
366
351
342
345
349
343
337
422
375
362
342
348
354
364
370
381
397
402
398
371
340
327
324
327
332
344
332
318
322
323
330
335
313
484
374
345
340
344
341
350
354
375
381
378
356
320
295
285
285
291
298
284
262
261
256
252
247
255
321
261
246
252
255
273
287
305
323
326
326
300
265
254
257
271
291
295
284
286
293
301
305
259
559
323
320
322
337
348
365
383
402
415
415
400
368
345
343
349
361
375
362
356
357
361
362
364
317
626
386
369
371
379
387
398
414
430
438
440
423
388
377
371
370
379
398
388
378
379
373
371
366
318
617
374
366
372
381
384
388
407
423
430
434
412
373
352
343
346
356
375
355
344
341
341
341
343
320
516
364
343
353
360
372
384
398
415
422
417
389
350
336
331
339
354
359
343
339
339
339
345
310
548
334
342
344
345
351
363
375
392
405
409
397
362
341
335
331
342
355
341
328
329
334
334
339
313
541
363
341
346
354
361
375
390
408
409
406
379
343
330
328
335
346
349
334
327
331
328
328
286
589
343
341
352
347
343
356
375
396
407
413
398
364
340
330
332
338
343
330
319
329
338
327
322
446
369
356
349
356
364
370
384
398
411
420
413
385
357
344
348
355
367
353
339
342
345
345
349
320
543
371
351
355
363
369
382
395
411
417
418
392
359
343
337
346
360
351
335
331
331
335
335
288
615
350
341
345
351
355
365
379
398
408
410
391
354
332
328
334
347
349
331
329
329
332
334
308
535
341
348
344
350
358
369
382
397
412
419
407
373
346
335
335
344
355
340
331
333
337
339
337
282
611
359
338
343
351
355
367
378
397
408
409
391
358
338
335
339
344
355
348
342
342
345
348
349
301
628
370
358
363
370
377
385
397
411
418
420
410
378
355
347
348
358
364
359
345
343
343
340
341
303
575
357
350
349
356
360
367
378
388
398
400
392
361
337
332
332
338
342
348
333
329
330
332
332
328
418
379
358
348
351
356
366
377
385
397
401
399
371
343
331
331
336
344
351
332
322
321
321
320
305
456
352
343
342
346
348
354
362
375
384
390
381
358
339
331
336
345
357
353
335
329
325
325
324
298
534
337
343
343
344
354
365
375
387
397
398
388
361
332
326
331
343
358
340
326
325
325
327
328
316
464
358
333
341
346
353
364
379
392
399
396
367
335
317
315
328
338
339
325
324
326
330
332
284
613
353
340
341
346
354
361
371
387
399
405
391
358
339
335
344
348
356
346
343
346
350
350
346
416
406
370
354
356
366
376
389
409
423
424
417
383
347
329
327
334
341
344
330
327
330
330
331
312
489
350
342
337
339
345
355
368
388
400
405
396
367
343
330
330
341
353
341
331
326
331
329
332
289
599
352
340
342
348
351
360
380
393
404
410
391
359
341
333
337
345
351
332
321
321
326
335
327
444
364
357
345
351
354
364
374
391
402
407
395
361
330
316
314
324
337
324
316
319
320
327
328
280
599
342
324
327
333
336
347
362
386
400
406
389
354
331
332
330
339
353
338
327
325
325
321
323
288
525
339
332
338
345
352
365
388
401
409
409
382
345
329
317
318
328
345
331
319
318
323
324
327
336
444
349
340
347
355
363
380
397
410
417
405
372
336
319
328
330
352
356
344
341
344
346
343
310
584
343
357
354
357
363
370
380
395
410
416
395
361
334
326
329
337
351
354
339
337
340
342
346
341
385
421
361
345
351
357
364
376
395
413
419
415
377
339
326
324
326
340
321
342
339
330
331
332
329
336
330
375
413
354
337
350
357
363
376
395
408
418
419
389
357
338
335
337
337
349
350
332
329
332
337
337
340
350
439
361
339
344
350
355
372
394
413
418
411
380
343
325
320
325
334
352
339
327
324
328
327
328
280
594
346
336
342
346
355
364
378
394
407
405
382
342
323
318
319
328
340
348
332
325
323
324
325
324
328
449
350
329
337
340
349
361
380
394
406
399
369
335
320
318
319
324
338
346
334
330
332
333
334
333
336
456
359
341
343
353
360
372
397
413
423
416
389
356
341
335
335
341
351
363
360
344
345
341
347
348
302
612
353
349
352
360
364
376
389
412
418
418
397
362
334
328
327
332
347
360
355
340
337
338
336
340
292
608
355
343
344
350
359
366
383
401
410
414
392
355
332
328
324
326
338
351
339
328
330
331
330
334
287
601
342
338
339
348
356
363
377
397
410
413
395
361
338
328
327
328
339
349
352
337
334
337
336
338
333
402
404
361
352
354
363
370
380
393
412
420
419
387
354
344
336
340
341
349
363
348
340
341
345
348
349
312
593
346
350
351
356
360
371
385
402
415
418
409
369
342
331
329
331
342
358
344
331
333
336
339
341
292
605
350
339
342
347
354
367
382
403
409
412
388
348
324
318
315
322
331
345
340
329
327
326
326
327
319
440
365
350
342
349
359
366
376
390
404
409
405
372
349
336
342
340
341
346
357
340
334
335
342
345
347
307
592
355
344
342
347
350
363
383
407
418
423
400
364
339
325
319
326
342
351
334
334
335
334
336
329
371
393
350
333
334
341
347
357
373
387
393
385
349
310
297
289
288
295
307
306
288
286
284
285
287
273
397
311
303
293
296
301
308
320
334
351
360
356
325
298
288
286
287
294
301
312
307
299
303
302
309
310
272
572
339
327
332
339
343
362
376
396
413
418
398
365
342
335
330
343
356
365
347
342
345
350
352
356
328
564
375
356
357
359
370
381
396
417
427
434
403
363
346
341
341
350
357
366
345
339
337
341
344
349
303
613
362
350
352
356
360
370
387
405
418
424
407
371
344
339
332
337
344
357
353
339
336
339
343
349
332
507
347
353
344
343
351
362
378
404
424
430
420
388
354
335
329
327
331
343
356
342
344
346
351
349
345
371
426
361
346
353
361
372
388
407
425
429
424
390
350
332
325
328
334
346
359
345
339
340
343
343
345
302
609
349
354
349
346
355
366
380
398
414
419
404
368
344
332
328
319
324
367
283
288
296
305
298
299
278
442
289
287
270
275
279
286
294
302
314
320
311
281
243
232
229
230
234
237
251
226
223
219
221
227
226
196
452
241
253
257
270
285
303
322
341
360
364
357
323
296
289
287
288
289
295
309
304
299
300
301
309
321
288
573
330
347
354
357
358
360
371
384
399
412
402
377
352
349
353
360
376
390
402
384
375
374
370
368
365
331
593
387
374
380
391
398
408
424
439
447
448
420
383
358
352
353
351
363
373
371
358
359
364
363
366
366
342
566
386
368
370
378
383
393
409
430
440
445
422
383
363
356
353
350
346
356
359
344
338
338
343
349
348
324
537
358
331
336
339
342
357
371
390
402
403
383
345
324
315
316
315
327
338
325
312
310
312
312
314
287
511
315
325
324
331
339
344
358
378
392
399
391
362
330
321
320
322
326
330
339
323
317
324
328
331
337
299
592
350
349
349
358
365
376
389
408
420
430
420
382
358
349
349
353
355
366
371
350
341
342
343
347
346
304
623
359
358
360
363
369
380
389
409
417
419
410
374
348
339
338
339
348
363
350
338
339
340
339
339
340
319
527
366
345
347
356
360
375
386
404
412
416
393
355
334
327
326
327
335
349
338
330
335
333
337
339
329
462
361
354
345
346
357
359
373
391
409
420
416
389
355
344
335
334
339
352
359
346
335
339
339
345
344
304
599
339
347
347
355
362
377
389
408
420
421
410
374
342
330
325
329
342
352
338
329
328
326
327
329
294
547
327
331
332
338
345
352
364
382
391
393
386
352
321
311
308
314
323
333
315
308
307
310
308
310
306
364
376
334
319
327
334
342
355
373
390
400
397
370
336
319
319
324
333
351
336
326
327
330
333
338
294
596
333
343
343
352
362
373
395
412
424
425
405
368
345
333
331
342
363
350
338
342
340
345
343
326
504
347
355
346
353
358
365
380
394
409
415
407
375
344
331
331
339
353
349
333
329
331
334
335
338
298
585
363
343
351
355
360
367
383
399
416
415
400
366
346
343
348
354
366
348
338
339
342
345
348
323
548
338
356
358
358
363
371
386
402
418
423
413
383
350
338
336
349
361
347
337
340
340
341
341
305
583
335
347
346
350
356
367
380
397
408
410
406
369
343
333
335
341
352
337
328
331
330
332
336
298
561
336
341
340
343
351
357
369
388
400
405
393
362
337
328
330
345
356
350
338
341
343
346
346
346
355
456
368
355
359
366
376
388
406
420
428
429
401
365
356
349
359
371
379
360
353
353
352
351
351
306
626
358
354
356
361
365
375
386
403
411
412
398
362
338
330
333
347
355
338
329
330
328
331
328
286
594
339
334
341
342
353
359
374
388
398
402
392
357
339
326
330
339
351
348
332
332
331
337
341
341
358
447
367
350
355
367
369
381
399
416
421
422
393
359
343
333
341
357
362
342
336
338
340
335
342
292
613
340
343
343
352
361
370
388
399
409
407
389
358
333
321
326
340
350
333
324
326
328
327
328
288
591
327
336
339
347
354
366
377
394
408
410
397
364
333
326
328
330
342
350
335
327
330
330
334
335
290
602
352
338
342
347
356
365
380
400
408
414
398
362
340
329
330
335
344
352
337
328
329
332
336
337
297
590
352
341
344
346
354
366
381
400
411
410
391
356
334
327
333
338
348
334
328
330
332
337
340
308
546
335
345
342
346
356
368
380
400
418
423
414
382
353
336
338
341
353
353
340
339
339
342
342
344
313
556
364
342
345
350
354
367
379
395
411
413
397
365
346
341
341
345
353
356
336
328
331
334
337
343
335
490
358
340
343
351
355
367
385
404
413
413
388
350
331
329
328
343
359
346
335
334
336
337
338
328
449
352
349
336
345
351
362
376
397
413
419
410
375
339
323
318
323
334
349
347
332
332
335
337
334
320
460
348
347
335
339
347
354
367
384
399
408
402
371
341
327
325
329
337
342
354
340
331
337
337
341
345
297
608
353
345
348
353
363
375
386
407
421
427
412
379
353
346
338
339
339
343
350
336
330
334
340
344
344
314
540
355
336
339
344
348
361
380
398
408
412
389
355
331
324
323
331
339
330
308
302
301
302
307
307
309
448
329
310
311
312
313
320
331
343
352
347
320
283
266
263
263
272
279
278
261
255
259
262
258
257
248
409
277
263
268
273
286
297
318
348
344
338
319
299
285
278
280
291
299
303
280
247
240
250
259
280
255
581
332
344
341
328
305
288
297
321
339
360
367
357
345
345
349
354
362
366
340
322
317
317
321
327
295
597
346
358
357
364
364
371
384
407
422
432
422
390
363
350
344
341
340
345
359
345
341
344
347
348
346
316
542
354
327
324
326
328
333
345
363
372
371
352
315
292
287
284
284
287
295
277
264
265
272
274
277
248
509
298
301
303
314
319
333
344
362
388
397
391
363
335
324
328
334
343
361
352
340
342
344
346
344
316
546
340
360
352
363
372
379
396
415
429
435
425
397
362
351
349
357
364
381
366
356
356
357
357
361
337
531
353
366
358
364
372
378
392
410
423
429
430
401
369
353
353
346
354
360
345
339
335
339
343
345
322
532
336
353
342
350
355
366
374
388
408
407
399
367
337
322
316
323
336
347
333
326
328
333
330
333
285
602
337
335
338
342
349
362
377
399
410
413
402
368
341
333
335
342
355
363
345
343
343
341
347
348
302
630
365
356
355
362
371
380
394
408
422
424
408
372
349
335
333
336
342
354
340
329
331
335
336
337
292
600
359
344
341
338
337
335
342
357
369
384
369
338
313
309
312
328
335
323
307
303
302
304
308
287
473
310
316
305
311
323
332
343
359
373
386
386
360
330
320
313
320
315
324
312
305
322
328
335
339
296
613
349
339
339
346
354
365
380
393
399
395
381
342
321
319
319
336
345
360
346
344
345
345
346
346
379
434
373
357
365
370
377
391
398
414
417
420
397
362
344
338
339
349
360
345
335
335
337
336
338
306
550
337
342
338
340
345
349
360
374
380
386
378
351
320
308
304
312
317
329
314
311
313
315
317
324
280
550
343
324
332
337
345
354
370
386
394
400
384
351
332
327
325
336
351
347
333
335
334
337
342
334
435
353
356
349
353
362
369
383
397
410
413
405
382
351
331
332
339
350
348
326
327
321
318
321
322
369
382
343
330
333
333
338
350
366
379
378
376
351
319
303
300
307
317
327
306
303
306
308
309
302
330
401
330
308
315
328
340
354
368
384
391
387
364
331
317
312
314
322
334
325
324
330
331
334
333
311
506
358
336
347
356
370
382
396
413
419
419
402
366
352
347
349
356
369
368
351
353
356
358
365
333
586
377
375
370
372
377
383
392
410
422
423
415
385
354
340
337
338
346
358
347
337
335
337
337
340
307
549
344
340
335
341
349
361
372
386
395
396
386
357
329
317
318
322
332
337
347
345
331
325
326
322
278
542
329
320
324
335
355
371
386
404
414
413
400
370
337
327
328
341
361
376
364
351
351
353
347
342
328
454
360
339
351
361
371
381
395
403
400
389
361
327
310
315
328
341
355
340
313
303
298
295
294
276
529
357
342
344
345
395
354
374
392
409
393
384
345
334
322
353
349
356
340
323
337
331
330
333
344
416
359
346
355
357
356
368
378
390
400
394
372
346
332
333
344
358
369
347
340
336
337
338
318
494
339
352
350
358
370
377
391
411
422
422
411
381
351
338
339
354
369
358
348
346
347
345
346
295
628
353
348
352
356
368
382
402
420
432
434
408
368
338
328
323
334
339
323
315
320
316
311
309
257
578
316
294
294
299
302
314
327
350
353
354
332
290
269
251
256
265
276
257
249
253
259
264
269
227
529
295
282
285
295
306
320
344
363
379
387
368
338
315
310
319
330
343
328
329
332
340
343
342
389
426
374
359
366
373
378
390
410
428
440
436
411
384
367
364
369
376
391
371
363
359
360
360
359
314
626
383
372
376
383
389
398
406
418
424
420
404
371
353
344
351
353
360
368
356
347
340
341
343
340
333
494
370
351
358
361
367
375
390
408
416
415
391
355
337
331
335
342
354
344
335
335
337
337
339
295
584
366
347
354
361
367
376
390
406
414
414
395
359
335
331
332
336
346
338
325
319
316
316
316
283
544
330
332
338
347
357
363
375
391
402
397
386
354
330
320
326
344
359
355
335
334
335
338
339
292
611
367
351
355
357
359
366
381
397
408
409
393
359
337
329
332
340
358
353
341
343
345
346
344
288
621
362
340
343
352
362
371
388
406
417
422
409
376
352
344
344
353
361
359
347
342
344
345
347
320
544
363
363
359
363
370
378
384
400
413
417
410
380
352
340
338
338
342
349
333
325
326
330
333
335
317
502
367
338
342
348
352
361
374
391
399
402
383
348
331
328
330
334
345
329
322
322
323
330
330
294
548
366
335
339
347
356
364
383
396
406
408
392
358
339
334
337
345
355
346
339
344
349
348
353
309
581
384
356
359
367
372
384
401
421
429
432
414
381
363
358
364
363
375
353
343
338
340
340
341
357
413
362
337
342
344
348
359
371
383
386
376
350
313
297
295
302
314
314
291
285
279
273
273
234
509
284
278
279
287
297
308
324
344
354
361
352
323
297
297
304
317
330
315
306
310
314
313
320
287
557
354
332
335
344
355
372
389
403
410
412
391
357
346
346
356
361
365
348
343
346
344
346
338
438
396
374
364
372
381
393
402
419
425
430
420
390
358
346
343
354
360
366
355
350
351
349
350
341
453
386
374
364
367
372
378
391
401
411
415
426
410
334
345
350
363
369
373
355
350
354
351
351
330
499
363
364
357
361
366
371
382
394
410
411
406
385
367
348
352
360
376
365
350
353
354
354
357
314
569
373
349
345
349
354
360
371
384
383
384
368
335
310
299
300
317
306
295
295
297
298
296
257
520
311
310
312
320
328
335
348
363
373
380
373
348
323
319
326
335
346
334
329
336
341
345
350
354
476
386
368
373
383
394
408
425
439
447
450
429
398
381
378
384
394
380
370
374
379
385
389
345
631
402
384
377
380
388
401
415
427
435
433
416
382
359
350
353
360
369
356
348
348
347
344
335
393
385
361
347
351
358
365
372
380
392
396
395
375
345
331
326
329
335
331
321
320
325
325
329
288
568
354
333
333
339
351
353
369
384
395
398
385
355
331
326
336
343
356
337
331
330
336
336
301
559
336
341
335
342
350
364
377
395
402
400
390
361
337
339
336
350
355
336
330
332
334
336
286
599
349
344
342
348
355
367
379
395
403
405
387
355
333
322
330
346
350
335
329
332
332
333
284
589
348
339
337
345
350
361
377
397
415
417
400
365
346
341
352
363
377
355
349
346
349
351
354
423
402
381
371
372
379
385
401
421
422
434
426
391
364
354
349
361
374
354
341
340
335
340
341
372
429
371
350
353
359
365
379
399
410
416
412
381
350
336
339
345
360
343
335
333
333
332
330
327
465
352
331
334
336
340
350
369
383
392
388
351
321
313
305
312
324
315
297
295
292
295
298
266
534
296
306
309
317
323
328
345
362
374
373
358
321
302
295
297
308
321
320
308
306
307
312
318
277
583
345
336
341
344
353
363
381
397
406
406
382
350
333
332
335
346
353
337
333
333
338
341
343
373
435
370
352
353
366
375
380
401
417
428
424
391
360
350
348
350
362
377
368
360
364
367
373
374
331
618
387
371
372
372
381
387
403
425
430
426
400
359
338
325
322
335
349
347
334
330
333
332
334
280
593
337
328
331
338
340
353
367
386
398
401
382
344
322
317
318
328
340
340
327
324
327
330
330
320
434
357
346
335
340
348
356
369
386
401
409
400
366
338
326
328
330
340
350
344
330
325
325
328
329
302
558
333
350
351
354
360
366
376
393
407
410
398
363
338
330
327
328
338
349
340
322
323
323
327
332
287
601
359
348
351
357
366
372
385
401
410
410
392
361
342
342
338
350
363
358
342
342
342
343
343
317
551
352
359
356
355
356
361
370
385
399
407
394
361
337
333
336
339
347
358
351
336
331
337
338
337
304
563
344
348
348
352
360
367
384
402
419
429
416
381
354
342
338
342
354
359
357
337
331
331
334
336
310
561
337
350
349
352
358
366
379
397
409
410
393
354
325
315
316
321
334
346
331
324
326
324
324
328
279
589
341
330
333
337
348
356
373
393
405
405
385
349
327
320
324
327
336
350
352
342
338
339
339
338
316
510
337
349
349
353
366
375
388
410
423
430
414
378
352
336
337
338
351
361
352
338
336
339
336
337
298
585
337
343
344
352
362
371
380
400
410
409
394
355
333
324
322
326
339
347
340
326
324
327
324
328
290
576
334
335
334
338
346
352
367
386
400
406
391
357
334
327
328
331
337
346
352
335
327
327
331
332
327
403
384
357
343
353
355
364
378
396
414
421
417
388
352
341
335
337
339
342
351
363
347
342
344
348
347
320
540
342
352
348
353
358
370
386
403
417
422
407
370
341
326
325
327
332
342
356
338
331
329
