349
347
363
372
392
417
434
433
394
336
319
312
312
316
318
319
329
333
322
327
330
329
260
567
448
327
330
332
339
354
369
398
413
420
410
353
313
294
298
304
305
310
313
336
310
319
321
331
317
234
562
395
323
324
330
337
349
367
396
406
409
377
319
301
301
300
300
306
312
328
329
328
331
332
343
261
580
452
331
339
337
346
361
384
402
423
431
419
357
315
313
310
313
314
321
328
329
319
324
324
329
280
518
454
328
327
329
339
350
374
388
415
418
408
352
314
299
300
306
306
313
327
323
317
321
323
326
297
453
467
331
323
326
332
342
361
382
402
419
410
357
315
304
307
309
307
305
321
326
319
325
327
331
327
343
446
355
318
320
335
337
348
378
404
417
416
357
309
288
287
287
294
290
314
317
301
302
310
311
313
261
492
360
316
312
317
325
342
366
391
401
407
362
298
289
282
288
289
303
301
321
313
312
316
320
324
283
459
456
330
325
326
333
342
357
384
407
418
413
359
310
305
304
310
316
321
322
334
344
338
344
342
350
344
338
496
383
347
357
363
367
388
408
429
448
449
403
340
329
324
324
324
332
332
341
350
338
338
342
341
345
249
628
446
336
338
343
353
365
381
412
428
431
405
340
317
308
305
308
309
315
322
317
332
335
327
333
335
336
321
374
485
357
325
330
339
344
361
383
403
422
423
378
327
307
311
312
316
319
325
334
325
343
346
335
333
339
341
319
416
457
349
333
339
350
358
370
392
409
428
425
375
317
304
302
302
306
318
316
319
324
338
322
322
327
331
334
258
538
392
337
329
337
350
361
380
405
422
423
383
327
304
301
299
301
307
311
316
312
330
317
320
324
325
328
239
567
399
320
328
336
337
352
366
388
407
411
380
329
298
299
301
306
307
307
320
323
325
329
326
333
331
295
469
456
344
329
336
344
352
378
394
415
432
423
371
309
298
291
295
298
297
303
304
311
305
310
306
309
298
357
453
333
312
311
317
325
353
365
388
399
401
351
297
289
285
291
284
291
299
294
299
315
312
313
323
323
321
246
558
466
320
319
321
326
343
359
385
407
412
413
356
316
300
300
305
313
309
317
323
336
332
325
332
340
340
243
567
426
338
335
346
348
363
383
404
425
435
403
339
315
307
313
310
312
318
316
315
334
322
318
323
322
318
274
527
368
317
318
325
329
344
360
382
397
402
362
299
282
284
280
293
289
292
303
299
314
305
310
314
319
318
236
532
398
318
319
328
338
349
375
394
414
420
391
337
300
298
300
305
312
316
313
323
331
322
325
324
330
309
425
466
357
332
332
347
354
368
393
413
423
420
377
324
318
311
317
317
322
327
327
338
337
338
342
338
352
302
506
487
354
342
352
356
367
374
401
426
438
427
386
331
318
318
322
322
321
327
327
330
346
343
343
343
344
349
268
611
463
347
342
348
356
367
390
406
426
437
422
369
326
308
307
309
308
316
312
312
319
320
313
315
316
319
298
401
449
330
309
310
313
329
337
355
378
389
389
344
287
271
273
268
279
283
281
285
291
307
292
300
305
308
311
223
535
372
308
309
315
322
337
355
377
394
403
373
321
293
290
288
298
300
301
311
315
314
328
330
331
331
340
339
263
585
470
340
341
359
342
360
378
400
418
437
427
380
334
316
321
324
326
327
327
336
361
345
336
341
350
339
261
609
460
341
343
348
352
368
386
405
424
433
416
365
323
311
316
315
323
324
322
328
342
338
332
341
341
344
251
593
421
338
343
347
354
364
383
402
414
426
404
334
308
308
314
316
322
324
327
334
348
341
341
347
350
351
281
584
478
351
348
358
360
369
386
406
430
438
433
380
334
322
323
325
327
332
332
336
350
340
338
339
342
343
255
609
455
333
340
342
353
360
376
397
414
422
407
350
312
308
306
309
311
317
323
323
337
336
336
333
342
342
315
452
486
348
344
344
351
364
371
395
418
433
433
387
331
317
313
321
317
323
324
320
347
340
329
335
338
342
317
416
455
359
339
345
350
358
376
389
418
425
424
383
321
304
305
310
306
317
317
313
322
326
321
328
327
332
329
245
561
394
315
330
328
340
348
370
391
403
411
385
318
295
287
295
290
299
302
310
309
333
325
318
330
329
327
290
480
448
337
326
333
335
352
362
387
407
420
418
370
322
303
301
306
301
307
303
308
324
309
308
307
307
309
226
564
410
292
292
300
301
304
324
346
357
364
354
298
249
236
239
237
244
254
247
249
259
265
256
263
261
270
209
487
416
276
273
286
289
298
321
343
361
382
378
330
281
277
280
281
289
287
292
298
313
322
318
323
327
331
317
420
490
358
349
356
364
366
388
410
431
446
452
411
350
331
330
332
332
344
341
350
351
367
354
357
359
360
361
294
542
423
355
359
372
372
392
411
435
449
454
431
365
340
334
334
335
343
347
343
349
361
354
349
355
357
360
253
642
448
353
351
357
362
374
390
413
430
438
421
351
316
313
310
312
321
324
324
322
339
337
334
339
338
343
286
546
484
347
336
340
344
357
372
397
408
428
424
371
319
310
305
301
308
310
311
322
327
323
316
316
322
315
228
580
428
309
311
313
325
335
351
380
393
396
389
331
288
281
280
280
284
292
296
293
302
302
304
305
304
282
402
454
324
312
320
315
329
344
371
387
408
406
362
309
292
294
296
305
306
306
315
335
324
324
333
332
336
262
585
479
338
339
347
358
367
383
409
430
443
438
387
342
334
335
337
337
340
350
342
358
365
358
352
354
360
355
307
511
407
352
354
358
372
383
399
426
437
449
413
358
326
324
321
327
324
328
340
349
340
333
344
344
350
263
601
472
338
342
354
351
367
382
402
422
432
421
360
322
326
307
312
320
320
325
330
338
334
337
340
340
323
386
493
356
336
340
347
355
369
389
406
426
428
382
329
311
314
316
318
320
323
330
347
334
337
341
343
344
260
592
439
340
341
349
355
370
387
411
431
438
418
359
321
311
312
316
320
324
330
338
323
325
328
329
330
253
549
406
329
329
338
347
360
377
401
419
424
400
341
311
306
307
311
315
318
327
340
326
327
332
332
335
243
614
422
333
336
340
348
362
382
404
423
434
409
348
316
309
311
313
317
321
327
341
330
328
333
334
336
275
578
458
338
338
342
351
361
380
401
423
433
426
373
327
314
316
314
318
322
326
326
341
338
337
340
342
346
300
523
478
348
342
345
352
361
377
398
422
433
434
384
334
320
318
322
326
332
333
338
351
341
340
346
351
349
263
634
457
341
348
348
354
368
377
406
427
437
427
371
333
318
312
320
322
325
329
336
339
333
339
343
340
312
449
444
354
338
340
352
360
375
394
418
430
432
380
325
304
301
305
308
310
310
326
317
313
314
319
316
255
556
443
318
316
317
323
336
355
371
399
406
400
339
297
284
284
286
288
293
299
312
305
301
304
306
309
264
464
453
306
298
299
305
313
323
344
360
374
366
313
262
246
241
241
242
235
239
250
247
243
246
246
247
233
252
406
272
241
239
249
255
272
298
314
330
337
298
246
226
227
233
234
244
250
262
272
274
278
285
292
279
333
453
326
310
316
324
339
357
380
408
423
429
387
339
319
320
325
328
336
346
350
351
356
355
363
356
350
520
398
372
371
383
391
406
422
447
460
469
431
374
358
356
361
360
365
374
370
360
368
369
371
355
468
467
391
379
385
388
396
412
432
451
464
454
412
355
339
334
338
343
347
362
340
339
344
343
346
251
612
454
340
344
347
354
366
382
405
425
428
411
349
317
313
310
315
319
330
337
326
332
336
338
341
249
584
423
337
343
350
356
368
387
412
422
428
405
342
314
314
316
320
317
328
331
328
329
327
334
334
244
557
411
333
334
343
346
367
380
396
413
425
396
344
309
313
314
316
315
328
333
330
326
337
336
336
277
488
400
341
342
355
352
372
397
415
432
435
401
345
318
317
320
321
335
345
332
326
325
328
327
269
558
453
336
335
339
345
356
376
397
411
421
413
357
315
311
308
306
311
322
328
319
321
322
324
327
231
602
440
321
326
330
339
350
366
388
409
417
398
340
305
303
303
307
314
324
331
332
325
332
338
335
281
545
479
346
343
344
355
366
377
400
421
430
426
374
332
327
325
329
336
330
347
350
344
351
352
352
352
300
495
409
350
356
363
366
381
404
419
436
446
408
353
328
318
316
323
326
333
337
325
327
333
325
326
274
509
376
322
325
331
338
358
374
396
411
417
380
321
298
298
295
298
308
314
330
315
314
320
318
320
271
520
465
327
324
327
337
345
361
383
402
414
410
356
312
306
301
306
313
315
316
331
336
330
339
342
343
319
435
473
359
343
343
350
362
375
403
415
427
424
385
335
310
308
320
318
320
326
340
335
332
333
327
338
287
524
453
341
337
339
347
360
377
397
418
428
422
370
322
314
312
312
317
324
330
336
330
332
331
339
336
236
633
443
336
340
340
348
364
377
398
416
439
406
344
318
311
310
313
314
322
320
334
337
340
338
338
338
322
370
473
355
322
328
328
333
346
364
385
398
391
345
283
260
246
245
242
244
232
241
240
224
220
225
224
180
351
338
220
205
208
203
218
235
260
278
294
289
233
189
183
172
180
187
198
204
228
223
227
234
243
252
152
550
379
272
275
281
300
320
338
369
399
407
392
340
307
310
306
316
324
331
340
357
349
355
358
363
367
273
631
459
369
372
382
386
398
417
440
459
470
446
381
353
350
359
359
363
371
368
381
384
385
383
386
384
343
562
513
390
386
391
395
405
424
438
461
470
471
417
363
351
347
349
353
357
365
375
360
362
360
356
361
275
567
440
354
355
363
370
385
401
427
440
449
414
355
329
322
323
324
325
331
341
334
330
333
340
344
294
498
479
342
334
341
351
352
373
390
412
426
417
363
312
304
302
306
309
309
311
318
338
327
326
331
332
335
236
600
422
337
329
338
344
352
375
397
411
425
402
340
301
307
305
310
313
315
322
329
343
330
333
337
339
337
259
566
423
345
349
353
358
371
393
416
430
440
415
354
328
320
319
320
328
324
318
337
331
327
331
335
336
281
541
464
333
334
336
343
356
371
392
411
421
423
363
317
307
304
310
312
315
315
327
335
328
331
334
338
336
262
546
397
336
342
344
352
368
386
408
421
430
397
336
313
311
315
315
318
326
330
330
339
338
341
342
347
333
368
511
370
342
347
356
364
373
393
419
431
433
394
341
326
317
326
331
330
331
333
348
353
345
349
351
356
315
504
480
358
345
355
362
372
386
398
427
442
435
383
331
313
312
311
316
316
318
322
334
320
327
325
326
328
248
524
395
322
323
323
337
346
369
396
405
412
383
321
291
288
293
292
298
302
303
308
314
316
316
319
323
243
571
457
322
322
324
335
345
361
381
404
423
403
351
306
303
301
305
307
313
314
325
330
332
341
336
333
344
254
557
402
336
342
347
352
370
392
401
422
423
395
340
300
295
292
289
289
286
291
297
280
270
269
268
256
166
486
342
232
227
225
227
236
249
269
281
288
263
197
161
150
154
157
163
168
167
185
182
186
199
192
204
128
476
349
217
226
236
251
263
289
314
341
355
348
298
257
258
264
271
281
289
292
304
329
328
330
336
346
359
262
623
453
368
369
380
390
406
427
446
466
481
457
402
369
368
367
372
375
378
381
394
402
399
401
401
404
402
336
577
455
398
397
406
413
421
448
466
483
485
454
395
366
358
360
358
358
363
363
377
367
366
367
368
373
290
623
486
359
360
364
372
381
399
417
437
445
434
374
333
323
322
326
331
333
336
338
351
340
346
346
348
343
321
523
384
347
349
352
360
374
391
417
432
439
397
340
324
320
320
321
325
332
334
332
346
348
353
352
353
360
304
535
477
357
352
356
360
366
385
409
425
442
439
401
339
321
322
317
326
328
334
347
344
339
336
341
342
301
498
455
346
338
337
342
354
367
389
407
419
415
367
317
299
300
305
307
310
316
323
327
323
323
330
330
304
430
478
343
331
336
332
346
362
385
401
415
420
372
325
306
307
308
310
319
317
329
336
341
334
342
347
342
292
563
472
353
347
356
359
372
387
411
436
443
441
387
343
327
327
325
334
339
345
351
349
347
350
348
353
331
452
463
360
352
344
354
362
384
404
427
434
433
385
328
312
316
314
316
323
327
334
340
331
331
338
337
345
239
617
433
334
335
340
347
362
378
404
418
428
406
342
310
307
306
305
308
313
314
314
325
339
320
324
326
326
307
396
482
332
319
318
325
323
343
357
379
390
389
344
288
265
261
255
254
256
259
257
260
264
258
260
261
262
256
251
388
298
255
265
269
277
296
315
337
356
362
326
268
249
242
248
258
263
267
277
298
282
288
296
296
297
218
572
423
311
317
325
337
357
372
387
411
425
412
352
311
309
310
314
323
323
328
336
347
338
344
343
353
355
293
563
410
358
357
367
378
391
405
432
445
454
423
361
336
337
337
333
346
343
354
353
350
370
360
360
362
366
368
273
619
442
365
366
367
378
381
403
426
442
450
434
373
340
336
333
334
341
341
347
347
349
356
367
357
362
363
367
360
366
499
396
367
372
376
384
392
417
434
452
457
429
366
340
334
337
338
341
345
344
343
348
342
344
343
347
351
315
486
465
359
341
345
352
359
372
394
414
427
431
381
330
313
304
313
310
319
325
315
322
338
331
329
335
336
339
257
596
466
336
325
335
352
352
374
387
410
421
411
360
317
302
308
310
307
313
313
318
323
327
325
331
330
334
280
523
479
337
333
335
340
351
368
391
415
423
425
377
332
317
313
315
323
326
328
334
339
348
340
346
348
352
324
472
459
364
351
353
363
371
392
409
430
444
442
404
348
317
319
316
320
322
325
331
337
336
334
335
333
334
254
593
463
331
334
340
345
359
372
397
416
421
419
360
318
308
303
307
312
315
321
325
340
333
330
336
337
337
254
611
462
332
333
338
347
353
376
394
411
426
414
363
320
311
315
316
316
322
330
338
339
336
342
346
345
325
425
464
361
341
347
352
359
377
394
418
433
439
393
341
322
312
322
318
322
327
338
336
336
334
335
341
305
458
450
351
334
340
346
355
374
393
411
423
433
379
322
306
310
303
313
316
321
333
320
324
327
324
330
269
548
463
333
326
337
341
351
369
391
406
427
417
366
319
304
311
310
312
319
321
329
325
339
337
338
340
340
343
260
603
465
331
330
334
339
352
359
382
393
408
400
343
291
278
275
274
275
280
283
278
275
273
285
281
277
275
284
279
218
496
412
263
271
267
272
286
304
324
343
360
357
308
258
237
239
244
251
249
256
256
260
278
276
273
275
278
284
232
474
418
293
285
289
299
305
318
340
365
377
380
331
275
258
260
258
263
271
272
274
281
279
286
284
287
286
292
293
199
573
404
294
287
291
305
320
322
353
378
387
381
328
286
282
289
290
296
307
306
317
314
329
340
334
338
346
347
353
276
558
419
351
351
365
370
374
405
426
444
450
426
369
336
315
319
323
325
327
325
325
332
338
327
327
326
330
323
229
557
413
311
312
315
327
334
359
365
391
399
379
323
283
275
275
274
284
292
287
295
299
315
310
313
318
324
325
231
611
442
330
324
331
347
357
375
399
415
429
425
371
327
320
322
322
327
335
339
337
350
359
361
358
360
361
365
296
612
488
367
368
370
379
389
401
427
445
453
458
403
361
339
332
340
346
347
352
351
355
363
353
358
354
360
350
345
498
394
350
359
364
368
382
421
414
412
433
405
343
320
312
306
309
314
320
323
327
339
326
331
332
330
323
296
528
356
321
324
327
337
347
369
390
409
414
383
326
290
291
286
294
295
296
305
317
314
314
313
316
328
247
561
443
323
323
333
339
353
371
394
417
423
424
366
316
307
305
313
318
317
317
334
334
332
347
337
346
303
520
483
354
349
349
356
359
381
397
426
432
434
384
335
320
320
317
324
324
330
333
344
342
344
350
347
358
259
626
440
351
354
364
370
383
391
421
441
456
435
375
339
325
331
335
332
334
340
354
344
343
348
351
350
260
582
440
345
348
354
356
372
389
412
418
428
409
348
303
291
290
295
299
295
296
306
295
288
289
289
293
194
528
363
280
279
284
290
298
320
334
353
359
336
276
237
232
231
235
239
244
248
262
251
255
260
263
262
172
535
363
274
270
288
292
313
327
358
380
393
381
326
294
288
292
294
300
309
316
328
325
325
335
342
351
271
604
471
345
358
364
374
386
400
425
448
455
451
397
354
343
341
348
354
358
363
374
360
364
372
368
373
296
585
440
373
374
382
387
403
420
441
453
464
437
373
345
340
340
345
344
349
356
360
355
357
357
363
358
304
559
406
350
357
361
371
382
401
421
441
443
412
354
323
318
320
320
325
328
328
337
341
335
340
331
342
292
500
451
337
323
328
327
340
349
375
388
402
401
356
301
280
272
278
275
269
273
287
278
275
274
282
286
195
549
410
284
283
297
299
313
330
358
377
388
379
320
277
274
274
277
288
288
298
312
309
309
316
320
325
255
565
470
327
332
338
346
358
374
396
417
431
425
373
325
314
318
318
320
327
330
336
349
348
341
348
353
357
263
627
468
354
355
359
366
383
394
416
441
447
436
376
339
331
333
327
329
339
335
351
346
343
347
346
352
332
444
461
365
344
357
352
369
382
403
426
437
434
396
345
318
317
317
323
326
329
335
348
342
343
343
345
345
262
606
470
341
344
347
350
363
384
401
417
430
419
365
316
307
309
311
313
315
318
321
332
328
327
331
334
337
247
571
410
338
335
345
350
357
379
400
418
432
412
349
317
313
310
310
315
320
324
337
337
334
336
343
346
303
519
466
352
346
352
359
370
388
410
430
455
442
388
348
340
298
315
313
315
327
340
333
333
330
339
336
275
544
466
333
338
343
344
361
376
396
415
426
426
375
330
312
311
313
317
319
327
339
329
333
334
334
338
276
547
473
333
339
338
347
359
375
396
416
435
431
373
326
316
310
319
323
327
332
341
332
336
339
345
347
291
557
464
350
344
352
357
372
387
407
430
435
435
384
331
321
317
316
320
329
329
346
328
330
332
334
337
243
609
446
331
329
339
348
361
380
398
418
430
406
347
310
301
299
303
303
309
317
328
318
324
326
326
332
232
612
432
330
334
340
343
356
375
396
411
428
410
347
310
307
311
311
314
319
328
335
328
328
335
335
339
291
497
386
343
342
353
362
367
391
419
433
440
404
346
319
314
310
315
318
337
332
328
327
332
331
328
274
540
443
327
313
318
323
330
347
359
386
386
377
319
267
249
244
246
244
248
243
255
236
243
236
229
226
128
471
298
221
223
222
231
243
263
291
305
318
293
229
203
205
212
216
224
233
251
252
254
258
270
272
247
413
407
311
299
299
313
323
346
371
404
413
419
375
325
311
302
314
322
325
341
350
343
348
356
355
359
284
622
487
367
366
374
376
390
405
430
448
458
452
394
351
341
343
354
340
349
352
359
354
355
356
361
363
272
642
484
363
364
371
377
393
408
422
448
454
447
387
355
347
345
349
351
352
355
372
370
369
372
375
378
306
619
505
371
375
376
384
393
410
431
445
466
455
401
348
336
334
333
339
340
352
351
345
348
347
350
346
308
495
388
344
340
346
353
369
386
410
418
428
392
327
308
303
307
303
314
317
333
321
322
331
330
332
280
525
471
338
335
340
345
355
370
397
415
426
420
375
320
307
312
314
311
320
325
342
336
336
340
339
354
249
619
459
344
347
351
358
368
388
413
435
432
428
365
320
318
315
310
315
319
323
327
322
320
325
326
317
335
433
357
321
318
323
335
353
366
390
399
401
359
298
276
273
281
279
286
295
303
293
294
303
305
305
265
480
365
308
311
320
325
342
366
385
400
402
371
305
286
285
285
285
290
294
303
295
297
304
305
307
204
575
403
303
307
310
315
331
351
363
384
396
373
309
279
277
277
281
283
288
299
304
304
307
312
313
314
262
499
367
305
303
315
321
333
342
369
380
396
350
290
260
256
255
257
259
261
273
255
260
256
261
268
170
510
365
260
259
268
276
290
314
335
352
364
351
288
257
249
256
263
269
278
289
298
292
303
310
316
298
391
473
348
332
335
341
360
374
398
423
437
441
400
343
328
332
335
344
344
354
368
363
371
365
376
380
289
647
498
376
383
386
395
403
426
444
461
473
455
397
362
348
347
344
345
348
360
356
349
357
352
358
329
450
451
360
347
350
349
354
378
392
410
423
417
369
318
295
294
298
292
302
313
314
308
307
316
312
316
273
503
368
324
324
333
339
358
385
403
421
427
390
335
312
309
309
313
318
322
339
326
330
333
339
340
289
532
484
344
347
346
350
359
383
396
426
425
429
382
337
316
319
323
326
328
338
353
344
344
348
353
354
278
609
476
356
359
367
371
383
401
420
441
451
439
380
338
331
326
330
334
337
347
343
341
343
346
348
305
524
475
355
345
351
349
365
380
407
426
436
429
375
326
314
322
317
324
325
326
343
339
338
342
342
343
340
326
514
376
343
341
347
361
374
391
411
426
434
402
336
316
315
314
315
320
321
325
342
335
333
339
341
344
258
614
460
342
343
350
361
372
387
414
430
445
436
368
339
325
330
333
332
334
345
353
354
346
353
360
354
333
494
393
359
365
363
372
387
410
432
452
450
412
351
328
322
319
318
325
328
337
320
323
327
327
312
361
459
343
317
315
322
327
340
360
377
388
384
338
279
257
253
256
256
251
265
272
254
257
258
263
257
174
470
321
252
251
250
265
277
302
324
339
352
318
260
225
233
238
246
245
252
261
273
264
276
285
290
253
437
446
312
305
317
319
332
358
376
405
414
417
373
321
310
314
308
317
327
339
340
336
347
346
348
271
586
488
351
355
356
365
381
396
414
436
447
444
381
340
335
338
334
336
348
365
350
354
354
359
358
272
598
464
352
358
371
373
386
406
425
447
452
436
377
348
331
340
340
341
354
360
348
351
350
356
345
358
478
384
348
349
361
359
380
399
418
427
433
388
334
312
304
316
314
320
338
326
323
331
333
335
249
606
461
334
340
346
352
367
381
407
425
426
419
353
317
318
313
314
318
325
335
334
336
341
351
346
294
530
488
343
350
350
361
367
383
406
424
436
433
382
332
320
317
319
319
325
337
335
337
336
338
337
299
526
458
344
341
340
349
364
382
398
418
432
423
370
322
310
306
308
316
319
334
327
322
326
331
334
264
561
463
330
332
344
340
352
371
395
415
426
418
362
311
308
310
312
314
308
323
323
329
332
329
337
326
315
500
374
338
337
345
359
373
389
409
429
433
392
338
316
319
322
323
326
327
352
341
346
345
349
354
320
486
501
361
357
355
364
373
397
410
433
446
446
390
345
327
329
333
334
338
342
354
345
344
347
348
346
257
561
423
342
344
353
362
374
396
414
429
441
405
343
317
306
308
320
311
315
329
324
322
322
324
327
242
582
442
321
320
328
340
347
363
387
409
419
399
342
305
298
297
300
303
312
313
327
322
324
329
330
336
269
522
383
330
332
341
349
362
384
402
424
422
395
339
308
309
309
320
321
327
335
340
336
342
347
345
343
318
497
390
351
350
365
368
381
407
431
445
451
409
351
324
324
322
326
326
332
343
334
320
323
326
323
235
586
424
307
305
303
311
321
330
351
362
373
351
287
249
233
232
231
235
234
238
235
225
234
230
231
197
368
372
243
235
237
245
257
276
300
322
333
337
287
241
224
232
236
242
253
255
275
281
283
287
297
298
268
436
448
327
316
324
338
348
370
394
412
432
432
384
339
324
326
333
331
343
346
360
370
366
373
374
383
371
332
550
423
384
390
395
402
417
434
455
474
477
443
387
360
360
353
360
362
361
377
378
372
369
376
370
375
306
533
434
367
370
374
382
393
418
435
450
458
417
355
332
326
322
322
329
328
335
345
337
334
339
339
349
255
576
422
339
344
349
364
370
390
411
422
435
406
342
317
314
315
321
326
309
319
335
335
334
337
340
342
281
552
480
343
333
341
339
353
369
391
409
420
415
357
318
299
302
302
309
309
314
323
330
327
330
328
337
333
249
557
413
340
339
345
357
368
385
408
424
431
411
350
317
319
312
316
321
322
320
334
337
328
331
331
328
333
257
500
383
317
319
321
318
335
355
374
382
393
359
301
269
259
254
260
267
267
265
283
281
280
280
282
285
226
489
418
291
291
289
302
313
327
355
371
386
380
327
276
267
263
279
268
274
283
286
301
294
295
300
307
306
222
528
379
309
311
318
328
346
363
389
402
416
387
327
305
299
302
307
314
316
323
333
336
339
338
348
351
310
506
489
353
358
357
365
377
397
413
436
449
448
399
350
332
334
334
342
343
354
367
362
356
362
360
366
281
624
474
359
361
365
373
377
400
422
436
442
428
369
327
315
317
314
318
325
326
335
319
323
322
317
316
242
508
369
311
309
312
317
337
347
373
388
390
359
294
270
268
268
272
277
272
285
299
289
294
299
299
297
211
536
370
305
307
315
324
342
359
386
401
413
388
327
301
302
303
308
315
323
323
326
335
334
334
340
348
325
427
460
364
351
351
361
371
386
406
426
442
444
402
349
324
324
325
331
335
329
339
336
334
330
340
334
279
543
444
338
334
336
342
354
367
392
413
424
417
366
316
306
303
303
308
310
319
335
318
323
326
333
330
264
569
445
327
326
335
345
353
372
396
415
428
425
363
320
312
314
310
321
320
328
328
333
353
338
346
351
353
352
266
621
469
343
354
358
365
382
397
411
435
450
433
381
341
327
326
334
335
343
347
335
358
362
357
360
363
366
339
457
494
378
363
368
370
384
393
414
437
453
452
407
352
331
334
333
330
335
338
350
352
345
350
350
350
349
299
500
404
351
351
356
367
375
397
411
430
438
402
340
313
309
308
309
314
315
325
336
322
324
328
334
333
244
612
448
333
337
342
351
362
380
407
424
436
423
367
313
313
316
318
318
326
324
337
345
337
340
343
344
341
259
572
401
338
340
342
345
359
377
394
413
420
389
331
300
291
295
295
298
303
295
321
311
302
301
306
300
278
404
420
311
300
298
302
312
329
348
372
380
386
335
277
260
254
257
266
269
269
283
281
278
278
284
286
275
314
416
322
291
298
300
310
332
350
373
392
397
356
300
281
280
286
287
293
296
307
326
314
317
327
320
330
237
603
433
338
337
350
355
367
383
415
432
442
423
367
331
331
319
331
342
338
346
344
366
360
356
362
363
372
310
547
500
363
364
366
377
388
403
426
440
456
455
410
354
343
345
344
353
351
356
366
370
375
378
372
377
384
343
525
501
391
378
377
389
396
418
437
458
465
464
424
366
339
340
338
341
342
346
347
362
342
345
345
340
345
252
597
437
331
336
334
345
359
374
398
414
421
408
343
299
299
298
300
305
309
309
309
328
317
319
320
326
332
237
599
438
324
325
330
337
345
368
388
408
420
406
345
309
300
301
305
307
313
317
316
328
323
332
337
341
339
280
549
479
352
340
345
366
361
385
409
433
445
441
385
333
323
324
323
329
333
331
341
350
348
349
350
347
355
270
564
433
346
352
361
372
378
400
424
442
453
423
362
328
315
313
321
318
324
330
340
330
335
332
338
332
284
514
389
331
334
337
341
358
375
401
419
421
380
321
295
289
294
298
300
301
308
318
307
307
309
315
304
234
525
354
298
293
301
301
313
334
353
370
376
339
272
243
238
238
237
238
240
240
250
248
248
242
250
244
232
372
290
243
249
257
264
281
304
326
343
351
316
256
235
240
234
243
249
264
286
266
273
280
281
290
198
578
411
307
316
322
336
348
371
396
421
434
418
361
321
319
324
330
329
340
350
358
357
358
361
369
360
382
549
403
379
376
388
391
405
425
450
462
476
431
366
354
347
342
359
346
364
363
369
369
373
371
373
343
483
473
377
370
372
378
385
407
422
456
462
463
415
362
338
338
334
339
341
352
359
359
356
350
354
358
281
610
477
353
353
354
368
370
392
415
432
447
434
375
330
322
320
324
326
324
336
346
336
338
341
342
347
245
637
437
339
338
343
347
363
380
399
416
428
404
348
313
304
306
313
312
317
322
326
351
334
334
344
337
344
245
624
442
340
344
348
359
364
389
413
429
440
422
364
327
318
315
320
321
332
324
323
339
328
333
336
335
335
240
583
432
334
334
341
344
357
376
399
408
417
405
342
305
297
296
297
307
311
311
323
334
332
317
325
331
336
270
558
474
341
334
336
351
355
371
391
411
424
424
374
317
309
312
313
312
318
321
327
328
346
334
337
343
348
345
250
610
451
349
343
354
360
362
389
408
429
441
428
370
328
321
322
320
317
323
331
335
343
330
338
338
339
305
489
442
346
334
340
342
355
371
390
413
424
424
375
320
305
300
305
308
316
318
324
332
320
322
328
337
324
270
531
382
328
331
339
346
355
376
394
418
428
389
331
306
304
303
310
312
315
318
328
333
331
327
344
333
340
316
510
377
342
331
346
365
364
392
414
430
450
407
352
322
322
323
323
326
329
333
346
349
340
344
349
346
344
332
480
387
349
348
352
363
368
399
416
436
441
404
347
317
313
314
321
321
327
323
330
343
332
337
339
345
341
274
551
388
337
336
345
353
363
384
410
422
432
404
342
323
317
322
324
328
330
320
347
344
340
345
344
348
331
393
448
377
339
345
349
357
372
399
422
438
439
399
342
318
319
317
314
324
319
342
337
331
329
332
335
302
456
439
342
329
332
339
347
362
384
402
417
410
367
307
292
289
292
291
302
306
324
313
311
315
313
316
234
579
442
310
317
322
327
339
357
379
403
412
403
347
300
298
301
304
304
310
311
327
333
326
334
337
343
322
409
479
363
347
347
358
366
381
401
429
441
446
407
347
323
330
322
327
331
335
351
341
342
343
341
349
294
541
444
346
330
336
341
347
367
382
399
411
411
347
294
279
274
280
276
278
283
293
278
282
283
284
287
187
533
368
278
284
288
295
313
328
348
371
382
352
294
264
261
263
269
275
272
285
295
292
302
303
305
310
207
591
423
305
315
321
328
344
359
397
412
426
412
354
315
311
311
320
319
324
335
349
341
343
347
349
344
318
484
455
363
355
344
363
375
381
403
431
434
433
396
334
316
319
316
321
325
329
344
338
339
338
338
342
325
409
486
368
349
346
356
361
377
401
425
436
440
394
338
318
316
317
318
324
323
333
347
338
340
344
347
349
260
621
459
342
344
352
359
369
384
412
426
440
428
366
327
317
320
323
327
330
333
353
342
343
346
349
350
333
421
446
369
348
352
351
363
384
400
419
433
439
394
338
319
313
310
316
320
321
334
338
319
328
332
331
329
240
595
424
335
345
339
351
361
385
406
423
430
410
353
321
313
313
313
320
330
326
328
342
344
339
342
343
350
332
350
515
371
341
342
349
354
368
384
404
422
426
383
331
305
300
292
292
293
291
293
288
300
299
290
287
288
284
257
344
427
284
259
251
256
260
263
285
297
312
304
267
203
177
174
173
175
178
177
183
195
197
197
202
209
210
208
192
348
271
226
224
241
252
268
293
319
334
344
317
263
237
238
241
250
257
270
274
290
283
288
301
310
314
220
598
433
334
342
348
360
376
396
423
448
455
443
388
352
352
353
357
362
368
370
378
394
386
388
392
395
397
331
633
537
394
398
401
407
416
431
450
467
480
473
426
379
367
363
363
365
364
369
374
372
378
391
381
387
390
389
382
345
549
424
377
383
383
393
401
420
440
452
460
435
380
347
337
340
339
342
348
348
350
360
351
351
354
352
356
276
554
425
347
348
350
360
374
390
411
424
433
409
351
315
310
308
311
316
319
322
326
340
328
332
336
335
337
252
583
403
332
334
339
350
361
377
402
419
427
406
349
318
315
316
316
324
327
328
335
349
342
343
350
348
352
274
615
472
351
354
357
364
378
390
412
434
445
438
385
337
323
319
321
327
323
329
334
352
339
336
338
336
341
248
598
439
336
337
347
351
363
381
403
420
428
416
357
314
309
306
313
309
318
324
338
332
330
334
337
337
266
604
466
338
339
343
349
364
382
402
419
433
428
374
325
313
312
317
315
322
326
334
339
336
340
342
345
316
424
490
354
339
339
348
360
369
386
411
422
424
387
330
309
316
318
322
323
322
336
333
334
343
341
345
335
358
479
373
347
346
354
364
379
404
419
432
440
403
346
326
317
321
329
329
336
354
340
341
349
347
350
274
593
473
340
346
347
358
369
385
406
428
438
426
372
326
315
316
317
321
326
332
329
325
330
330
333
330
252
543
389
323
325
333
343
349
372
391
409
409
381
321
291
290
291
291
291
301
315
304
305
308
309
313
284
433
452
328
317
325
328
340
356
381
408
415
419
375
321
303
303
302
305
311
325
327
318
326
328
332
332
270
493
394
333
335
341
349
362
387
407
421
428
394
329
306
303
302
307
314
312
321
322
317
320
323
329
328
266
528
384
328
331
333
345
358
381
400
415
422
392
336
308
307
306
309
314
321
321
336
329
331
336
341
340
272
572
476
341
342
347
353
361
377
398
418
435
417
365
327
315
308
315
312
320
320
328
339
335
339
342
343
344
262
608
451
344
344
351
356
369
391
413
433
447
435
383
345
320
323
332
335
331
347
352
345
344
346
353
353
267
571
440
349
350
354
362
378
392
418
429
439
413
351
319
308
310
313
316
319
323
338
323
327
332
336
334
255
593
462
329
330
333
338
350
367
388
406
418
407
351
305
301
295
304
298
304
308
319
323
316
320
327
332
325
321
499
359
328
332
334
348
366
382
402
415
426
388
334
306
304
306
306
309
310
320
332
326
327
338
331
335
256
516
409
336
338
345
349
368
385
411
423
426
398
344
308
305
304
307
308
320
321
332
324
326
331
329
334
255
542
400
334
330
339
343
362
381
404
414
423
387
335
299
302
299
302
306
312
314
327
317
327
323
325
328
224
597
418
317
318
322
324
337
352
367
385
396
376
311
273
268
267
266
267
271
273
285
274
274
279
277
273
181
499
356
269
271
277
286
296
317
340
359
366
347
284
252
249
247
255
260
268
280
276
273
281
282
289
273
354
417
321
296
302
311
325
342
364
388
406
406
365
316
297
301
304
308
311
321
335
334
338
336
342
353
308
494
501
359
358
361
373
382
399
419
446
456
452
410
354
342
337
345
353
350
357
380
374
378
371
378
384
367
426
515
410
381
384
393
400
417
431
454
480
466
430
371
354
351
353
353
354
363
377
361
365
366
365
366
326
514
493
369
364
364
366
379
384
408
426
438
433
388
331
319
310
315
315
318
331
332
334
325
333
336
333
311
397
491
348
328
337
330
341
358
378
396
411
419
372
318
302
304
303
311
302
298
316
323
319
321
326
330
332
251
563
407
334
333
346
351
364
382
412
418
427
407
346
316
312
312
314
320
324
336
328
335
334
336
337
326
356
454
367
337
338
345
355
369
390
409
422
428
387
328
308
302
309
308
314
323
332
323
326
332
333
336
241
611
449
327
325
328
343
350
368
395
410
416
403
341
304
301
298
303
312
310
323
330
324
325
324
333
333
243
601
456
333
339
342
357
359
379
400
417
431
420
368
322
314
319
317
317
320
337
343
334
342
343
341
348
252
602
447
339
339
344
350
365
384
403
427
425
408
348
305
303
298
300
302
308
325
318
317
315
315
327
323
247
514
381
317
320
325
337
347
369
390
404
415
370
315
288
286
287
291
291
296
308
306
312
307
311
316
245
556
454
322
321
325
331
350
365
385
407
416
409
353
311
308
303
312
311
319
334
339
323
343
344
343
349
260
561
427
349
353
354
362
375
391
408
418
425
387
328
286
277
271
265
261
263
260
244
237
231
227
220
186
310
333
208
183
179
183
186
197
217
230
246
246
198
136
122
126
127
135
136
146
168
165
171
182
186
199
162
367
362
228
233
242
253
274
295
319
348
373
377
330
290
280
291
294
310
310
319
334
358
341
352
360
367
374
291
645
495
384
382
388
400
415
435
458
474
490
477
417
380
367
366
366
372
372
386
389
378
378
376
378
380
294
643
484
368
367
369
382
398
408
436
450
458
442
382
346
338
337
346
347
351
356
374
354
366
365
371
367
287
622
505
365
365
370
377
388
407
427
446
460
442
384
342
336
332
334
338
345
337
351
356
353
355
355
360
359
261
617
460
350
356
363
358
378
399
414
440
447
436
373
334
326
327
334
329
336
352
356
352
352
350
351
355
262
626
467
351
357
360
362
380
397
416
436
443
423
363
329
324
319
321
323
325
336
342
339
339
343
345
346
249
630
449
338
342
347
355
370
381
406
421
433
418
355
318
314
311
320
318
324
326
342
343
341
346
341
344
305
468
468
340
333
336
338
352
367
387
414
426
424
378
328
310
300
306
308
315
328
326
322
328
327
335
319
356
438
367
335
337
346
356
370
392
412
426
426
379
323
307
303
306
309
313
320
323
317
320
319
324
322
259
521
372
316
315
318
329
340
356
377
392
396
361
300
277
273
277
279
281
288
299
292
294
297
299
306
209
568
405
306
308
315
322
337
360
384
402
417
393
338
303
302
302
306
310
316
327
331
329
333
334
341
320
427
447
362
342
345
350
361
375
396
416
429
430
384
331
309
305
309
312
317
327
329
324
326
330
335
334
241
587
414
330
334
339
348
362
379
402
418
424
398
334
306
303
305
307
312
315
330
332
328
334
338
339
330
338
507
373
343
345
355
361
380
400
423
437
445
403
350
326
324
328
330
335
351
352
347
354
350
355
350
264
621
462
355
351
360
367
384
400
422
435
446
422
366
329
319
326
324
331
333
343
330
331
336
339
340
242
624
440
340
342
347
358
367
391
404
424
431
407
341
313
305
306
310
308
319
329
320
321
325
327
327
234
606
438
322
322
326
336
349
363
382
402
417
393
336
306
294
296
297
309
307
326
328
328
327
334
338
322
326
473
368
330
335
343
351
368
397
413
432
435
402
340
317
324
324
323
332
338
352
343
344
349
352
354
275
617
470
353
344
349
361
373
385
412
425
432
418
360
313
302
302
297
299
298
307
295
295
287
285
286
258
333
418
278
254
248
245
252
261
275
293
300
302
239
185
161
162
156
155
157
168
184
176
177
187
196
191
122
437
347
208
218
226
239
256
279
301
331
346
340
292
254
253
254
265
275
281
297
320
316
315
326
333
341
272
586
467
352
354
363
375
387
408
435
459
468
465
410
364
359
360
365
371
373
386
389
372
380
382
384
380
373
517
424
386
386
394
402
415
434
453
465
466
424
367
348
341
345
346
352
357
369
359
358
357
360
358
317
530
484
359
356
359
363
374
381
403
428
434
430
378
329
317
318
319
322
324
328
344
339
337
345
341
348
313
464
496
344
343
345
349
362
378
390
416
430
432
377
327
313
309
316
322
328
326
327
352
347
343
353
349
347
325
461
480
364
358
356
366
373
389
410
430
447
447
403
351
326
327
328
329
332
334
350
350
342
347
350
345
339
352
468
382
343
346
355
364
372
396
418
426
430
391
334
310
310
314
318
319
324
327
343
328
336
343
339
338
245
628
446
339
337
344
352
371
381
403
423
431
418
346
312
306
311
312
315
314
323
330
335
323
335
336
336
339
244
617
445
338
339
348
351
372
380
406
426
440
423
364
322
315
318
323
321
328
327
343
338
339
343
344
348
305
526
454
348
342
349
353
366
377
404
417
433
427
366
320
306
304
308
313
313
319
322
330
321
325
325
332
314
364
470
357
328
332
337
348
364
381
402
417
416
370
321
289
294
295
298
304
306
313
309
321
331
323
323
326
331
331
243
577
400
329
330
333
343
355
374
393
412
423
397
336
303
302
303
304
307
311
315
313
333
328
331
320
330
328
290
514
465
345
357
373
377
384
397
416
440
463
465
428
387
376
390
371
386
386
383
401
409
407
394
396
389
377
300
555
433
342
336
335
338
327
347
353
352
346
304
221
174
164
161
163
166
171
175
177
174
168
173
172
182
88
463
301
176
178
185
190
204
224
249
272
286
270
215
186
177
187
194
195
209
215
232
234
241
248
259
265
225
449
408
293
293
303
314
329
348
377
403
420
417
365
323
315
319
324
331
338
345
361
359
354
362
363
369
317
586
496
373
377
385
392
406
426
448
470
480
476
416
375
366
365
368
370
375
380
394
387
385
389
387
393
339
560
527
395
385
390
392
404
420
449
460
473
468
409
369
351
357
345
354
344
358
355
363
359
361
355
357
350
258
618
430
339
342
337
343
356
371
399
410
425
395
336
295
293
283
285
287
290
299
307
303
296
303
309
310
307
292
443
356
316
310
321
330
347
360
395
399
409
375
315
295
292
292
304
299
311
320
333
325
323
329
335
336
235
627
430
339
328
342
348
363
385
397
422
431
408
343
311
319
318
316
325
332
338
347
352
357
354
363
358
289
619
488
365
367
361
374
391
411
430
451
464
450
392
356
346
346
337
345
349
349
347
358
353
350
347
354
333
394
474
369
340
340
350
359
367
390
410
425
423
381
326
304
302
306
307
313
317
321
331
325
327
327
330
333
275
552
467
336
332
340
335
353
376
388
404
423
419
372
320
308
309
319
322
329
321
329
342
334
336
341
344
345
280
584
478
344
338
343
350
351
362
384
403
411
406
351
296
287
279
278
274
270
279
285
291
280
282
284
282
282
231
441
335
272
273
282
293
300
326
346
368
361
340
277
253
255
255
261
271
271
283
289
300
288
297
303
304
256
498
455
319
319
324
333
348
362
384
408
422
418
373
327
315
317
320
326
330
333
345
357
353
353
357
359
363
277
637
476
362
368
366
380
390
404
429
451
465
446
393
354
339
345
345
346
352
355
362
358
353
360
354
359
310
560
471
359
353
353
358
368
385
408
423
430
431
375
325
314
312
315
313
318
323
329
331
330
334
334
340
332
334
505
371
337
337
349
357
372
392
417
432
442
397
333
318
321
318
316
320
323
327
332
333
350
347
349
351
346
354
268
619
450
350
349
355
377
375
397
411
435
449
437
373
338
329
325
324
330
334
336
330
332
337
333
328
331
330
315
233
576
431
303
298
292
290
295
309
332
344
344
330
274
227
214
204
207
211
206
212
212
212
230
227
224
228
232
233
218
319
386
263
248
253
267
281
298
321
353
367
376
344
299
274
271
275
284
289
299
303
309
326
333
331
333
340
339
342
298
491
408
348
350
361
367
384
407
423
437
447
426
360
335
327
330
337
339
346
350
348
361
366
363
364
363
371
338
472
501
381
368
370
377
386
401
422
445
455
458
416
362
342
344
343
346
347
353
356
359
360
369
366
368
370
368
340
464
511
373
358
360
365
372
384
405
421
437
434
392
335
315
306
302
302
307
312
304
309
317
307
306
309
312
289
349
420
332
300
305
306
319
333
351
373
385
390
357
301
281
276
282
291
290
301
299
308
314
323
328
321
329
330
324
357
460
362
343
342
351
356
372
391
416
434
441
415
360
331
332
333
336
349
345
351
366
362
359
363
364
366
280
602
458
376
376
376
392
404
418
441
454
462
445
379
344
336
340
337
326
339
341
351
338
336
339
338
331
355
450
360
332
327
336
339
357
374
394
406
409
365
307
289
281
281
287
290
294
308
298
297
301
301
305
240
536
428
306
305
311
319
329
351
371
392
403
395
340
298
293
289
297
302
305
307
314
326
319
322
326
331
331
243
592
433
331
331
337
346
358
376
397
416
428
412
359
324
321
326
321
324
330
329
339
350
343
346
351
355
359
273
591
439
358
359
362
375
380
400
417
435
448
429
368
340
331
337
336
336
344
337
359
358
351
357
362
363
315
546
471
362
361
364
369
377
391
415
434
446
437
392
341
328
325
328
325
333
332
347
339
337
338
341
341
263
597
447
333
338
341
347
357
374
397
412
420
409
350
307
300
301
304
306
308
317
321
310
314
312
317
316
247
520
385
314
325
329
342
356
375
398
409
415
385
333
309
310
311
317
321
325
326
343
337
338
339
344
345
287
539
467
340
339
342
347
353
366
384
404
413
408
358
315
297
297
294
297
299
302
303
317
314
311
316
315
315
273
495
438
319
317
321
327
335
353
376
393
407
405
357
310
295
292
296
303
303
308
316
326
316
322
323
327
325
247
535
401
327
327
334
345
356
373
398
411
420
395
336
308
302
306
309
313
319
325
334
323
326
331
332
333
271
525
389
331
331
337
348
360
375
396
412
419
385
329
306
303
303
306
311
315
318
334
324
326
331
335
337
250
579
426
333
339
343
351
363
378
401
419
431
408
351
319
314
314
319
319
322
325
338
332
329
335
333
335
262
562
443
331
330
335
340
352
372
393
409
420
412
354
312
302
303
308
311
312
322
329
322
327
328
331
334
251
555
407
334
336
345
354
366
383
404
419
426
400
343
318
313
313
316
319
321
335
338
330
336
337
337
338
256
566
413
341
341
346
355
366
382
404
419
428
406
350
320
316
316
317
321
320
330
339
332
334
338
338
339
291
521
457
345
348
352
353
364
380
403
418
428
435
374
310
311
316
319
328
337
327
343
328
329
331
336
342
328
379
480
375
341
339
354
363
375
403
419
441
435
393
338
330
315
314
327
326
323
340
340
340
344
342
347
344
281
540
403
343
339
348
353
366
383
402
418
427
393
333
308
307
305
310
312
311
318
330
332
332
334
336
333
275
541
475
334
337
344
348
356
374
401
417
424
426
372
325
317
318
318
315
324
319
334
332
329
330
339
338
335
291
475
387
343
340
346
354
369
387
402
417
432
386
335
303
304
304
312
306
313
326
329
323
330
330
335
340
247
593
447
330
339
335
344
354
372
396
405
417
399
334
295
293
296
291
295
298
296
312
303
300
300
305
304
282
334
443
317
282
289
287
292
304
319
333
352
350
306
247
232
228
230
231
228
232
239
258
248
253
255
261
260
188
494
392
269
270
280
288
301
320
343
376
372
369
315
277
272
272
278
288
295
303
314
307
317
318
325
337
241
556
438
319
337
347
351
364
391
401
430
438
418
356
330
327
331
342
337
349
353
366
356
361
362
367
367
310
561
421
370
370
375
384
398
415
436
450
458
420
363
339
339
340
342
342
350
352
363
352
358
361
363
365
284
576
423
358
361
365
369
384
399
422
434
448
415
361
335
328
329
335
334
337
342
353
356
351
348
358
354
299
564
472
357
355
357
356
368
381
405
421
432
421
362
320
302
304
300
300
305
309
319
313
309
310
313
312
244
544
432
308
309
311
319
331
347
371
387
399
388
335
291
279
284
281
290
298
299
316
306
306
310
309
322
231
586
417
319
322
321
333
343
367
384
402
411
394
338
303
299
300
308
318
306
320
337
329
334
337
342
349
287
565
471
351
355
354
363
374
393
410
435
446
438
385
338
328
328
332
337
339
347
356
354
356
354
342
354
302
540
474
358
351
356
365
375
390
415
429
441
433
373
325
320
316
317
309
319
327
343
328
328
325
338
338
256
595
461
332
336
349
347
352
374
392
419
423
416
354
326
310
315
317
327
323
322
332
336
332
343
336
343
288
501
481
340
344
348
350
360
372
395
412
428
423
369
315
298
303
290
290
293
293
294
291
285
281
282
271
247
338
375
271
241
234
246
241
249
276
290
301
296
255
194
180
179
177
184
181
193
208
195
205
203
210
218
175
398
358
239
239
244
255
279
301
320
349
368
363
323
278
265
279
285
295
296
310
332
338
331
338
343
349
301
549
498
363
362
369
381
395
402
426
451
464
460
412
360
361
351
357
359
360
366
376
382
373
382
381
380
350
496
518
389
378
390
385
401
415
437
452
475
464
418
371
360
359
353
355
357
367
368
366
363
364
362
366
281
593
447
363
358
352
367
383
402
428
442
449
423
356
331
326
325
324
326
338
343
338
336
345
345
349
296
533
478
346
345
342
354
360
377
399
417
421
420
367
324
308
311
314
316
323
325
336
330
336
340
339
332
238
586
426
330
336
338
352
366
371
405
410
419
403
337
307
311
315
312
318
320
329
340
335
339
338
341
351
249
588
444
339
338
349
359
370
388
411
430
447
417
366
331
330
290
314
322
326
343
346
337
340
349
347
341
283
501
409
341
340
351
361
376
396
417
427
432
395
337
324
322
323
318
322
329
341
332
330
336
339
342
254
593
471
332
335
340
346
362
374
398
415
425
408
357
306
301
309
309
305
312
323
330
328
337
331
330
336
263
579
467
338
336
347
340
360
371
397
413
420
408
359
316
307
309
315
314
319
326
335
333
337
347
348
345
307
473
480
348
349
357
359
363
382
401
415
429
430
384
330
320
316
322
328
321
338
348
334
339
351
334
353
266
588
454
344
340
350
350
361
383
398
415
423
407
349
304
300
300
303
308
307
325
323
319
321
323
327
316
340
478
352
328
330
337
344
357
377
397
412
413
368
316
301
300
300
302
307
313
321
319
318
320
326
331
236
571
419
326
330
334
342
353
368
389
405
421
395
328
304
302
305
311
313
317
326
337
340
336
336
339
341
261
557
427
341
350
351
354
366
391
411
429
434
408
352
323
319
317
322
329
327
343
333
335
331
338
341
314
452
447
352
338
334
344
356
374
391
411
424
419
370
319
304
304
303
309
309
316
326
320
319
325
321
323
233
575
411
320
320
328
337
348
365
386
405
413
384
324
294
290
295
299
301
304
313
323
316
322
324
324
328
239
582
432
329
332
341
346
353
370
395
410
419
400
345
316
309
311
316
316
319
323
335
334
337
335
341
338
330
390
468
363
343
343
353
358
372
393
409
421
427
383
338
318
312
318
325
323
321
346
338
334
339
342
344
315
481
458
354
346
342
352
358
371
396
416
424
421
365
322
306
303
305
314
310
323
328
322
325
330
335
337
242
577
417
332
336
339
349
359
371
396
411
414
377
329
304
302
303
308
312
313
319
332
325
328
333
334
336
256
541
397
330
331
335
341
350
364
381
393
397
362
301
269
263
264
256
256
253
261
253
244
239
241
234
191
386
346
222
215
212
216
226
237
259
277
288
283
230
182
165
165
176
174
178
183
205
202
209
211
225
210
236
354
267
235
244
253
272
294
319
338
360
372
333
280
274
276
279
293
298
305
322
320
328
335
345
337
293
537
422
340
359
369
376
394
416
440
451
460
418
363
349
348
351
357
363
368
384
383
382
392
395
398
346
586
542
403
408
410
417
427
445
462
483
494
485
430
386
375
376
374
376
374
381
388
383
380
381
382
384
304
585
448
374
375
383
383
393
410
433
444
450
415
355
327
323
320
320
325
323
334
336
331
329
333
334
322
360
469
355
330
331
339
347
362
381
403
414
415
370
315
299
294
298
303
306
307
309
325
326
322
325
329
331
320
349
479
360
334
336
342
350
363
384
405
420
422
383
332
310
309
312
314
320
323
323
325
342
335
336
339
339
343
261
585
460
340
341
347
353
364
379
400
417
428
418
364
325
319
315
321
326
326
332
338
355
345
347
350
352
358
279
599
467
353
357
363
370
381
399
421
436
447
431
375
335
328
327
328
336
342
337
352
352
346
350
352
352
335
435
461
370
352
353
360
365
380
399
418
428
427
379
330
309
311
309
313
315
318
326
329
320
326
329
329
315
366
468
352
327
330
333
344
357
377
403
412
416
368
320
301
302
305
300
299
309
311
320
326
322
329
332
328
284
494
472
339
333
335
349
360
368
393
418
419
425
388
327
323
320
322
327
330
341
350
341
347
343
349
354
337
428
480
373
354
362
352
379
393
412
433
441
439
396
349
324
327
331
330
329
339
346
348
345
345
348
352
318
473
462
355
339
338
354
355
371
392
407
419
422
365
313
300
300
303
305
309
316
329
318
317
317
319
321
237
569
430
315
313
318
321
330
342
359
377
381
359
292
250
238
230
224
221
217
215
211
199
192
186
183
158
229
311
184
164
159
168
173
187
214
235
253
259
213
170
158
163
173
183
194
208
226
223
233
241
251
264
193
473
362
291
299
310
330
351
376
401
425
436
408
361
339
338
343
351
359
368
384
375
377
383
385
392
306
647
485
391
396
403
411
428
444
468
486
493
463
403
375
375
370
373
376
383
390
381
382
386
387
388
301
647
492
378
380
384
390
398
415
433
452
462
437
378
346
339
338
341
342
350
352
364
346
353
356
357
361
312
505
489
361
355
362
363
374
387
409
433
443
438
386
343
333
331
331
337
340
334
349
357
350
350
355
353
363
274
603
449
357
359
357
372
371
401
425
436
448
423
358
327
324
318
324
331
337
342
359
347
344
348
342
352
267
586
457
341
340
346
354
361
377
397
416
424
412
346
312
301
300
307
307
312
310
331
320
321
324
329
328
282
508
461
332
331
332
338
352
365
386
409
414
412
359
318
304
305
307
310
312
317
320
332
325
329
333
335
339
252
569
416
337
341
345
353
365
382
396
407
425
402
348
315
310
314
309
317
318
321
341
344
339
344
347
344
347
309
501
382
343
350
352
367
377
400
414
433
437
397
345
315
320
319
322
324
330
345
346
339
342
336
338
337
251
562
422
330
335
340
349
357
378
399
416
424
398
334
305
302
305
308
308
310
320
324
321
327
325
328
318
315
483
360
327
322
337
344
369
379
403
417
433
383
334
289
317
316
324
320
328
322
339
323
327
345
342
341
275
548
405
344
352
354
368
371
390
410
441
440
406
348
331
326
323
327
336
336
337
348
340
342
350
345
340
341
477
381
344
343
353
364
372
394
419
427
430
390
328
312
304
301
305
301
308
315
304
299
302
298
301
205
541
394
280
277
277
287
294
310
330
342
350
323
266
223
221
218
221
223
228
242
243
242
247
249
258
238
340
392
284
272
277
287
300
317
337
362
378
380
337
293
281
288
291
299
303
311
330
325
332
337
340
349
276
582
459
352
360
367
377
389
408
434
449
464
449
384
361
343
344
350
355
352
369
375
367
368
373
374
377
308
556
441
376
379
380
394
407
429
451
457
459
427
366
341
335
328
334
330
332
345
342
333
333
327
331
262
562
437
328
328
348
328
356
374
410
413
444
397
350
320
305
307
301
292
299
339
322
320
319
322
324
281
500
407
329
322
323
342
339
360
371
390
411
395
346
305
300
281
294
295
295
298
316
311
311
313
323
321
261
539
408
328
326
331
343
352
366
389
410
418
402
356
314
316
311
319
322
323
330
346
337
346
344
351
347
295
583
449
359
367
367
373
387
405
420
437
446
439
385
345
338
336
339
344
350
336
358
350
349
351
353
354
337
417
451
365
348
351
356
364
380
393
411
422
420
381
332
317
315
315
320
321
322
334
338
332
335
338
341
342
265
548
419
339
345
351
358
370
388
408
421
432
407
359
328
320
323
328
331
335
334
347
356
345
348
349
352
348
349
464
387
357
355
363
369
381
394
418
423
427
394
341
318
316
313
313
316
320
321
334
324
316
317
319
315
238
549
404
304
307
306
312
323
335
352
365
374
356
296
258
253
255
251
254
258
260
261
269
280
265
272
275
277
248
403
388
291
289
289
296
307
326
339
361
372
375
337
292
281
280
285
288
297
297
307
309
327
326
326
330
333
336
269
550
443
340
346
356
362
373
390
405
423
437
438
384
351
342
354
349
347
362
360
362
368
386
375
377
390
391
383
350
524
432
391
387
399
406
419
434
453
467
465
445
389
364
354
357
362
356
356
360
368
375
357
362
361
365
293
581
464
356
354
358
364
370
384
407
428
434
421
367
320
315
311
315
319
325
323
324
340
327
323
323
333
332
264
511
385
334
336
339
345
356
376
395
401
411
390
334
310
308
308
317
312
314
330
324
328
339
340
336
340
345
348
273
536
416
341
342
354
361
369
383
405
412
424
402
342
322
316
309
311
320
322
323
324
324
332
341
333
340
336
342
280
543
447
341
342
347
354
365
373
390
412
417
416
366
327
311
319
310
313
317
321
324
324
321
342
339
335
341
342
340
284
540
452
352
348
353
357
364
377
398
420
424
419
384
334
321
328
321
324
330
332
334
340
342
341
341
346
342
330
416
442
365
342
347
353
369
375
391
414
422
419
386
326
312
303
314
313
313
314
321
333
322
321
319
320
325
253
547
438
320
325
332
340
342
356
378
397
404
397
344
305
303
299
299
309
305
313
324
326
327
317
327
324
331
251
525
399
330
336
336
343
356
375
383
405
413
384
338
303
305
303
304
309
311
316
325
340
327
331
344
342
343
293
479
394
345
346
356
368
374
400
421
423
438
404
349
329
325
326
331
331
333
340
345
333
337
340
342
341
265
528
404
333
337
350
352
364
382
398
414
419
393
336
308
297
303
305
298
311
320
317
313
314
314
315
313
287
450
357
313
317
320
324
335
351
368
382
381
342
290
265
262
261
262
260
263
270
279
267
269
269
271
271
195
495
358
272
274
283
288
302
321
339
358
372
356
304
273
271
274
277
284
290
298
315
307
310
314
324
324
314
379
424
355
339
341
350
360
377
399
417
431
435
396
342
326
327
329
333
334
337
335
353
350
344
349
350
352
352
296
524
415
352
356
360
367
379
396
414
427
434
407
352
325
320
320
324
327
329
332
331
347
346
340
342
344
347
344
315
494
390
347
349
354
363
372
389
408
424
429
399
348
321
316
318
318
322
325
329
335
332
353
344
348
348
351
353
324
485
445
361
356
356
364
372
386
403
430
438
438
397
345
329
328
327
331
329
332
338
344
355
345
343
344
348
346
271
579
435
340
345
345
357
365
385
400
415
425
410
350
315
304
309
300
304
308
312
319
333
322
321
325
327
328
259
537
432
326
320
333
341
348
363
382
398
413
408
356
317
311
309
305
311
314
319
320
331
339
330
331
332
336
337
267
546
412
340
347
345
358
370
380
405
421
428
408
353
325
325
321
313
325
318
321
339
345
330
336
342
343
340
268
543
419
338
347
350
357
369
391
407
423
436
397
351
319
320
309
310
313
319
323
333
328
325
330
328
333
321
377
433
351
328
332
340
347
362
381
399
407
408
368
319
297
296
300
310
305
306
316
325
323
319
322
329
331
321
376
447
355
341
333
342
348
363
378
404
415
418
382
331
313
317
310
317
317
329
328
339
338
335
342
340
346
349
280
547
417
350
352
355
361
374
387
404
418
425
407
349
316
293
295
291
298
301
295
293
305
292
292
276
272
276
217
465
366
260
252
256
247
255
258
281
295
307
300
252
205
189
184
188
191
200
203
213
220
212
215
220
226
233
166
431
317
251
258
267
277
300
322
343
360
377
356
306
283
281
284
296
299
304
314
323
336
330
337
341
346
352
281
588
449
356
362
369
376
387
405
424
443
453
440
390
355
349
349
351
352
355
357
357
359
374
369
367
370
374
375
317
587
470
369
372
373
378
387
400
415
434
445
442
396
351
338
341
342
345
350
343
351
356
354
352
352
350
354
338
432
437
368
358
357
358
373
387
405
424
434
434
392
351
333
328
330
331
333
336
344
358
338
335
343
342
347
272
577
443
340
351
360
365
380
394
417
431
437
421
371
337
323
325
326
326
330
336
346
341
342
343
348
353
347
352
477
378
346
351
360
368
383
397
417
433
437
407
350
327
322
330
325
329
339
335
356
344
348
349
349
347
326
451
459
366
350
355
365
370
380
394
418
427
428
389
339
325
318
317
322
328
324
333
340
333
337
335
340
338
286
486
388
342
346
351
357
376
391
404
433
425
400
343
330
331
327
338
328
348
346
344
336
335
353
344
317
473
449
354
353
349
360
365
380
398
413
428
420
377
321
312
309
312
315
316
326
323
318
319
321
325
329
258
563
423
329
335
342
346
359
372
392
408
422
401
342
314
310
300
305
311
312
320
322
318
321
323
326
324
248
529
396
324
317
317
334
337
351
371
390
394
370
314
279
274
274
278
279
281
293
291
289
289
291
289
290
273
410
336
292
296
306
315
329
352
371
386
389
355
303
282
279
282
287
292
307
310
303
308
313
326
312
241
547
412
318
318
329
336
355
367
394
408
424
399
356
330
313
314
323
329
329
328
351
341
346
351
360
356
331
485
471
374
367
366
375
378
391
412
425
442
439
399
350
338
332
335
340
342
344
360
352
346
356
357
356
351
383
452
381
356
359
362
372
381
405
422
435
434
394
345
323
321
323
324
326
334
345
330
333
336
337
340
282
559
443
340
338
342
349
358
372
396
412
421
409
360
317
311
308
307
308
309
322
324
319
324
326
326
330
250
552
413
326
326
336
339
349
365
380
397
411
392
345
309
301
308
308
311
316
319
339
336
336
335
334
340
320
458
440
357
349
348
361
364
385
396
408
428
422
375
326
317
314
318
325
324
332
341
325
331
332
333
336
325
353
440
360
338
333
346
352
376
381
399
416
419
377
327
310
302
308
319
309
315
322
327
329
330
330
333
338
266
531
400
340
341
346
351
362
380
398
408
419
392
338
311
306
305
314
316
318
330
337
330
336
335
340
347
279
548
445
337
341
342
354
361
377
397
413
419
419
366
310
306
310
313
318
320
318
328
338
323
329
332
336
333
312
460
387
333
344
353
358
367
381
405
419
422
393
343
310
307
310
312
316
317
325
324
319
317
317
315
314
254
461
355
302
299
300
305
318
333
343
355
362
328
275
251
248
251
252
254
255
257
267
272
277
266
269
275
277
207
471
347
275
283
292
300
312
329
353
371
380
360
314
285
276
280
286
292
297
296
314
325
316
323
322
329
332
266
557
435
342
345
352
357
370
385
411
427
438
419
374
332
333
328
325
343
345
351
356
340
347
347
361
367
346
445
458
367
354
355
369
378
391
410
425
447
439
391
340
332
322
331
330
333
340
350
352
344
352
345
357
348
355
486
408
347
354
366
368
385
404
419
430
429
393
345
323
329
327
330
329
338
342
350
359
331
331
346
345
325
419
460
362
348
355
360
357
366
388
409
420
424
390
334
318
317
322
318
321
322
322
337
341
337
340
339
345
341
287
494
405
330
343
352
349
366
382
402
415
422
409
352
316
307
315
320
324
331
337
351
343
343
339
336
345
286
558
445
341
339
351
357
355
371
396
412
420
414
352
319
307
307
304
312
315
321
330
322
326
320
333
325
269
535
431
335
332
333
340
349
363
385
398
416
402
354
322
308
310
310
319
321
318
323
333
331
333
340
339
349
271
560
432
339
340
341
356
358
377
394
407
421
406
357
330
316
316
321
319
318
329
340
345
340
337
337
350
335
268
552
431
339
339
348
346
354
380
399
417
429
406
352
327
315
301
316
316
319
330
325
324
324
326
326
321
254
528
407
325
328
333
340
353
359
390
403
410
384
331
303
296
299
297
306
311
322
324
317
325
321
330
324
260
512
397
330
335
344
353
362
378
403
413
419
395
332
306
305
310
311
313
321
315
339
322
315
324
326
331
321
335
450
355
332
315
319
330
340
349
370
385
389
352
299
279
277
273
282
280
282
277
296
292
287
292
290
294
293
219
498
373
293
297
299
304
317
333
352
369
377
357
308
276
272
270
271
279
283
284
287
312
303
301
305
311
314
301
400
421
343
324
333
338
352
366
385
406
415
416
379
329
301
298
310
319
321
321
325
330
338
335
341
342
342
340
347
478
377
358
352
364
372
379
395
421
438
441
399
351
335
323
329
330
340
334
341
350
352
355
354
356
359
362
296
532
405
356
358
352
366
377
392
413
433
442
411
360
330
321
329
330
333
333
335
336
344
353
346
341
349
348
353
280
570
434
350
346
361
364
376
394
414
423
439
429
363
337
323
320
327
334
326
343
332
341
334
340
340
344
349
272
533
423
339
340
347
350
367
382
402
419
427
399
357
318
312
298
310
314
313
324
332
325
330
321
318
335
297
438
440
342
328
332
341
349
364
384
398
411
411
369
323
304
303
308
311
314
317
325
338
331
331
335
334
337
291
513
433
328
335
328
336
349
368
382
397
412
416
360
314
313
303
308
310
315
315
322
334
334
331
329
340
341
279
518
422
347
354
362
368
383
395
423
431
440
418
361
339
333
330
333
337
334
351
344
338
344
343
344
341
314
474
384
338
340
344
353
365
383
403
415
424
383
327
306
301
304
307
306
313
324
312
312
310
312
315
269
494
428
320
318
321
329
340
352
371
388
400
395
347
306
296
296
297
307
304
306
327
332
320
319
322
328
318
354
450
361
338
343
350
357
365
387
402
416
418
381
334
313
311
317
317
317
320
331
336
330
330
332
334
337
293
473
389
335
338
336
348
354
384
389
408
422
381
328
302
309
302
307
317
322
330
324
314
320
330
323
253
563
426
322
328
338
340
357
371
394
410
418
402
353
315
306
301
316
312
323
338
323
317
328
335
339
295
484
446
334
337
342
352
362
380
396
407
415
413
367
324
315
310
316
314
311
318
331
326
338
336
332
342
258
544
405
328
338
347
356
357
375
395
407
414
396
342
305
308
312
314
317
321
337
329
331
332
336
336
298
477
436
342
337
336
345
345
361
384
402
417
404
352
312
303
301
307
309
304
326
322
317
326
328
321
333
295
470
377
345
334
345
354
368
368
391
407
415
376
324
307
302
300
302
310
313
303
311
311
311
311
251
509
405
300
299
298
302
305
323
331
346
348
336
258
227
217
214
208
207
220
210
200
200
202
212
197
239
304
236
211
212
220
234
249
272
295
309
311
269
223
207
212
221
229
249
246
246
254
262
267
264
309
392
313
293
301
310
321
339
362
385
399
401
356
316
305
307
313
320
337
339
334
343
350
353
359
289
569
441
371
377
384
393
407
412
434
451
465
437
383
363
348
361
362
358
373
380
368
372
375
382
379
312
601
471
382
384
391
396
403
412
438
446
463
439
387
356
351
351
352
349
360
367
357
358
364
364
367
315
571
467
369
368
370
372
383
396
416
435
442
431
378
343
330
334
334
339
347
355
344
339
344
344
346
279
575
446
343
348
349
355
372
376
420
411
402
399
347
314
309
315
318
299
323
328
312
323
325
320
328
279
527
438
327
340
348
350
366
382
396
420
427
419
371
325
326
328
326
331
330
338
349
339
340
347
353
348
283
540
417
351
354
355
366
369
392
412
423
428
402
350
320
321
324
321
325
325
342
342
339
343
339
342
342
305
463
394
343
348
351
356
374
392
405
422
427
392
339
319
311
314
321
323
325
342
333
321
327
335
330
310
404
425
346
326
336
344
347
370
387
405
418
409
371
329
312
312
318
317
317
327
338
324
326
325
335
332
257
524
400
332
333
334
345
357
371
396
406
420
381
333
317
310
309
312
313
319
322
338
325
328
329
336
342
265
537
416
343
344
351
360
366
381
403
422
420
394
352
308
312
321
323
323
331
342
349
347
340
348
348
351
291
565
447
349
358
353
365
377
389
419
432
432
409
373
331
322
328
326
327
332
339
345
337
340
339
340
343
275
520
411
336
338
343
350
360
378
398
410
416
385
327
304
299
304
300
303
308
318
312
306
304
310
313
290
386
416
321
304
306
308
