343
347
362
378
390
391
386
361
333
333
331
337
352
336
338
336
340
299
558
413
338
340
349
352
363
381
396
400
385
355
332
334
338
352
343
338
338
341
340
290
518
390
335
345
349
363
382
400
400
400
382
355
354
357
359
372
363
360
361
358
333
481
421
353
351
354
360
372
391
402
402
393
357
334
329
329
345
337
324
329
334
327
273
517
386
323
333
344
349
368
388
394
394
365
335
323
332
331
351
347
333
334
340
336
352
442
362
330
338
345
356
376
387
396
387
358
334
327
331
332
348
339
333
332
333
313
451
412
342
336
343
351
363
385
395
396
388
356
332
328
330
338
346
338
341
335
344
297
558
414
338
345
354
361
376
392
401
406
396
371
350
353
354
361
371
357
351
352
356
291
571
418
339
341
353
352
360
378
390
391
374
342
320
317
325
336
346
327
327
334
340
283
578
407
332
337
344
355
369
387
394
392
376
340
323
323
326
336
343
338
332
335
336
280
588
402
332
338
338
346
363
383
393
395
384
348
330
332
337
344
355
349
346
349
356
308
573
428
353
358
366
374
386
411
419
423
412
375
356
358
355
355
361
353
350
351
349
333
456
408
348
335
340
346
356
376
389
394
383
349
324
307
313
313
325
305
298
298
301
290
377
371
312
298
305
316
331
352
367
372
367
335
311
307
309
316
332
329
321
325
327
327
314
469
361
326
330
339
347
367
381
391
388
362
333
330
330
334
346
347
340
346
345
353
294
554
403
321
353
360
375
398
414
415
402
380
348
334
331
336
348
347
336
340
345
349
298
551
386
341
348
357
364
378
396
397
398
372
340
333
338
338
350
346
338
340
342
344
302
511
382
340
344
351
364
389
396
405
402
388
361
345
347
339
351
347
338
346
352
350
328
461
386
343
349
356
365
385
398
402
403
376
348
341
344
348
364
352
342
342
347
338
408
421
352
336
344
354
370
393
404
400
399
369
344
340
344
347
360
352
341
344
346
328
433
423
347
334
339
345
354
373
383
388
380
350
325
320
324
327
340
330
329
330
335
291
543
407
330
334
341
351
360
380
389
393
381
349
330
324
328
336
341
331
331
336
338
271
578
396
332
338
344
357
373
388
393
395
373
341
335
335
340
350
344
342
344
348
319
504
429
346
344
351
360
372
388
399
402
394
365
345
345
345
355
353
345
346
349
353
297
534
396
348
356
361
377
385
399
399
400
370
337
327
328
336
347
336
329
334
334
276
564
408
330
331
340
348
360
382
384
384
371
338
322
321
326
340
335
327
330
334
311
481
400
342
329
336
346
361
378
389
391
379
349
327
324
329
341
341
326
327
328
331
278
521
378
327
332
340
351
366
381
392
384
351
324
321
324
333
344
337
327
333
331
282
582
419
333
338
341
354
369
384
395
397
380
348
335
334
337
352
343
339
340
344
331
421
437
352
336
343
351
366
383
396
398
392
362
340
338
340
349
354
349
353
352
353
297
554
395
343
347
352
360
374
392
395
394
369
337
326
323
336
336
323
327
331
329
282
482
381
326
329
339
352
368
386
388
384
354
328
321
326
336
340
329
328
334
338
277
576
404
334
342
342
354
368
385
392
391
367
337
326
327
334
347
339
334
337
340
304
534
415
338
338
343
351
368
382
397
399
387
350
329
333
333
345
342
336
336
339
333
401
435
362
341
349
357
370
386
397
402
394
362
338
334
336
348
350
340
339
342
344
290
533
392
339
344
351
360
376
392
397
398
372
340
331
332
338
351
340
339
338
341
291
566
424
336
337
343
348
366
375
389
387
372
342
325
318
324
342
332
325
327
330
321
382
407
346
330
335
350
363
384
399
399
388
359
333
329
337
344
346
335
329
333
342
277
594
408
331
341
349
356
375
390
399
394
374
341
328
326
334
344
343
330
333
334
335
287
521
375
326
332
339
353
372
388
392
388
361
331
321
322
326
342
336
328
330
332
323
401
436
350
336
343
352
365
381
394
398
391
362
338
335
344
342
358
355
345
350
349
318
507
429
338
334
341
346
361
379
393
391
378
347
322
322
319
327
334
326
325
327
330
268
562
400
323
329
337
348
367
383
390
391
373
341
325
324
332
340
350
338
338
340
340
279
590
411
338
343
348
359
370
387
394
395
373
340
326
329
335
342
349
340
339
340
342
275
609
401
332
338
347
354
371
389
397
393
374
338
326
328
331
341
346
338
339
340
339
270
594
399
335
338
347
359
373
391
397
397
375
341
333
331
333
345
341
332
338
340
342
318
482
372
334
342
349
360
377
387
394
388
364
338
332
334
338
355
347
341
341
346
340
364
447
362
340
349
358
372
393
401
404
398
371
345
337
340
341
354
339
337
341
341
316
474
396
340
330
341
348
356
380
388
388
375
350
327
318
325
329
341
328
324
331
332
287
550
398
336
330
337
348
364
381
389
390
374
347
331
329
335
346
350
335
336
342
343
276
598
409
334
337
342
354
369
383
390
391
368
339
326
325
330
341
343
336
337
339
343
275
600
402
333
339
345
357
374
390
397
398
376
342
334
335
340
354
352
340
343
347
351
289
559
401
341
348
355
368
380
396
395
395
370
340
334
336
336
351
344
338
339
342
335
348
469
362
337
343
352
363
379
390
396
391
370
342
339
340
342
352
343
339
339
339
328
409
415
350
337
341
347
357
375
385
386
382
351
325
324
322
333
340
332
328
329
331
295
524
400
333
333
338
345
364
378
385
386
375
341
322
321
325
339
343
334
334
337
340
280
582
406
328
334
340
350
366
382
388
385
369
338
320
320
323
332
338
328
329
333
333
267
582
396
327
330
340
353
370
385
391
392
368
340
329
336
337
356
343
339
344
346
340
365
456
367
344
351
359
373
388
402
405
401
371
339
336
338
346
351
340
340
341
342
289
567
420
338
344
351
359
370
385
394
396
383
350
334
332
332
344
335
329
333
334
329
316
471
362
330
336
341
352
367
378
385
381
356
331
328
328
339
341
335
335
336
340
289
503
390
333
342
346
357
375
391
390
389
366
334
324
328
338
335
327
326
331
329
308
439
376
334
335
341
358
376
391
391
387
358
333
326
333
351
347
334
334
337
335
316
457
371
329
335
342
354
369
386
390
384
356
331
326
329
345
339
333
334
336
336
320
466
372
336
342
349
363
379
395
399
392
363
339
333
333
351
340
336
337
343
332
411
427
354
340
345
353
366
382
395
398
387
356
334
335
340
351
340
339
342
344
301
544
421
338
343
349
358
370
386
397
398
386
352
337
337
343
354
346
343
346
349
293
584
430
346
352
356
367
381
399
401
407
385
349
332
332
340
343
329
333
329
330
275
530
391
322
330
337
346
368
377
385
379
356
325
312
313
329
333
321
317
321
324
263
515
380
318
329
335
345
362
384
386
383
358
330
319
323
330
340
331
329
333
335
277
579
409
335
340
346
355
370
389
396
393
374
342
326
332
332
350
341
336
340
342
331
417
425
359
343
349
355
368
384
395
397
388
356
333
329
330
334
345
337
333
335
336
278
571
417
335
339
345
353
370
388
397
395
377
345
327
329
331
342
343
330
337
335
332
319
441
365
323
328
340
349
365
382
382
378
344
320
315
318
325
342
336
327
331
335
317
488
400
343
338
345
353
371
394
401
405
392
356
336
333
331
338
352
340
332
332
336
295
534
403
327
328
330
340
355
371
381
386
367
336
317
311
317
319
336
321
314
316
319
259
564
395
313
320
326
338
352
370
380
384
366
332
317
316
320
328
340
333
337
340
343
276
598
417
334
343
350
359
376
394
401
400
383
354
340
339
340
349
356
347
345
343
349
286
567
413
344
348
353
360
374
388
394
390
368
337
326
323
325
339
330
326
327
329
322
360
401
354
328
335
342
350
370
384
386
377
348
324
322
320
330
341
334
329
332
338
295
538
412
337
340
345
355
366
388
392
397
382
347
332
331
333
341
352
341
339
341
344
284
601
417
336
341
346
353
369
386
399
401
379
344
329
327
329
341
341
332
333
337
340
285
530
386
337
344
351
362
379
392
399
393
369
335
329
325
321
328
318
319
321
327
290
516
416
333
336
343
352
368
385
396
399
390
358
337
339
337
350
349
340
341
343
343
292
496
389
337
345
353
364
379
394
403
397
372
339
330
328
334
346
331
333
336
338
279
557
415
332
338
347
351
367
381
391
387
370
337
323
323
331
344
341
333
336
338
323
434
408
345
331
339
347
360
381
389
395
381
350
324
321
327
339
343
335
335
334
337
275
565
401
333
340
351
356
369
385
390
389
366
336
326
330
338
348
341
333
335
337
303
508
420
338
336
344
350
362
379
391
393
378
346
328
328
327
340
337
331
336
339
334
323
455
360
328
334
343
357
374
390
397
391
365
342
342
341
348
356
348
347
352
350
290
562
411
343
343
355
362
378
391
396
398
371
342
329
332
340
346
333
336
335
335
272
558
403
320
327
328
335
351
366
374
374
352
320
312
311
318
334
324
321
324
326
293
510
404
328
327
335
343
355
375
384
385
373
338
324
320
328
341
341
333
333
334
337
315
478
368
331
335
347
358
377
392
396
387
358
332
327
332
343
347
339
340
343
344
275
593
407
336
341
348
360
374
390
396
394
372
342
335
337
336
352
343
337
340
342
308
501
419
337
336
345
353
367
385
395
397
387
357
336
330
333
345
347
333
334
337
336
316
458
371
334
339
347
358
373
387
390
386
361
337
332
336
338
348
336
335
337
338
275
586
416
331
338
343
353
366
379
385
385
369
337
323
325
326
340
335
328
335
344
320
478
420
351
348
352
354
367
381
393
394
385
351
331
328
330
343
337
333
330
337
324
445
393
351
341
347
360
369
384
394
393
381
357
339
334
338
357
351
340
343
345
338
362
441
363
337
342
352
359
377
388
391
384
356
331
327
333
342
346
335
331
335
338
281
526
381
332
341
350
358
375
390
392
387
360
332
327
330
339
341
332
336
336
339
294
491
388
332
342
348
362
374
387
395
394
364
337
335
333
346
347
332
330
333
336
284
487
379
324
331
344
356
369
387
384
383
358
335
326
332
338
347
329
329
333
337
280
536
395
335
342
347
360
380
393
395
391
367
334
326
327
336
344
331
327
330
331
262
600
398
330
340
345
348
364
383
389
386
363
335
327
330
336
345
330
332
335
339
268
591
405
330
338
344
355
368
384
387
382
360
327
322
321
330
343
334
333
332
340
274
586
417
331
333
343
350
368
379
389
388
364
330
320
321
326
337
327
325
331
334
265
573
403
327
333
344
353
366
386
391
383
361
335
326
323
331
343
334
333
333
332
283
576
412
327
333
340
352
369
386
391
387
368
336
319
320
330
344
338
331
335
343
303
539
403
338
346
346
360
374
393
407
409
395
366
353
355
364
377
370
357
356
358
346
446
451
366
348
350
359
373
388
394
396
381
346
301
311
312
338
292
304
309
323
327
315
505
344
334
330
335
340
352
363
368
364
332
303
296
296
310
317
310
317
324
317
334
392
350
324
332
340
357
371
380
385
379
352
327
326
331
344
341
336
337
348
325
448
416
361
349
352
364
375
392
398
395
390
356
334
332
333
345
336
330
328
333
289
514
409
334
338
340
340
359
373
376
379
365
333
321
322
322
343
350
340
338
349
298
585
424
342
348
361
367
383
405
404
428
406
392
353
338
325
313
315
335
328
295
287
551
409
303
300
324
386
337
361
368
387
364
318
302
299
307
330
343
326
339
339
294
511
416
326
326
329
342
355
372
382
384
368
342
328
326
336
348
338
334
337
344
271
571
414
332
341
347
358
375
390
396
393
369
341
329
336
337
348
336
335
337
338
300
478
382
333
339
347
363
379
390
393
388
356
332
327
331
342
345
337
336
338
321
404
405
342
333
344
350
363
379
386
386
376
345
327
330
329
342
338
325
326
327
284
541
411
331
334
342
349
367
383
391
392
371
340
330
329
332
344
339
332
337
339
275
585
417
334
338
345
353
368
387
394
391
366
335
330
333
332
346
340
334
338
344
270
590
399
332
340
348
354
370
386
390
385
360
332
326
330
340
345
346
338
347
344
278
551
395
334
339
351
357
378
398
396
383
358
329
320
315
329
332
324
319
322
325
307
428
366
319
328
342
351
375
385
392
377
343
316
311
315
321
340
332
336
336
338
281
512
386
330
336
343
357
373
389
392
388
361
331
326
324
329
347
342
336
337
342
273
612
408
332
340
347
358
372
391
398
395
370
340
325
330
334
343
341
334
336
340
292
570
413
336
336
343
353
365
383
390
391
373
341
321
321
326
331
339
331
329
334
328
395
438
348
331
338
347
361
376
388
389
382
348
333
335
338
340
351
342
340
343
342
290
516
383
334
339
348
359
375
390
393
387
357
331
322
328
331
337
331
326
331
333
294
471
370
327
335
341
352
372
386
391
383
353
332
325
328
340
349
340
353
331
332
290
503
385
331
337
343
360
376
389
398
394
366
340
338
338
348
358
338
327
328
338
277
544
382
327
337
345
359
374
392
401
386
360
330
317
316
316
330
324
321
329
334
288
508
360
314
321
331
345
365
386
386
384
352
331
324
324
331
342
336
338
346
343
315
488
378
338
341
352
368
379
389
395
390
368
335
339
339
348
355
345
342
344
341
351
469
366
339
347
349
362
376
388
387
383
355
333
329
332
341
345
336
340
343
341
352
457
383
350
347
354
364
377
387
387
380
353
335
331
331
336
342
333
327
333
335
284
496
380
346
323
342
354
366
382
380
382
355
334
326
333
334
345
332
330
333
335
272
558
401
330
338
340
350
363
379
383
385
367
339
333
334
335
349
339
332
340
339
302
516
411
337
340
343
351
364
374
381
384
369
341
321
319
323
340
336
322
333
332
325
375
408
348
329
333
341
354
369
381
382
374
340
324
316
318
326
343
336
332
336
339
283
575
413
331
332
337
349
365
378
390
390
371
338
325
326
334
340
348
337
339
342
342
282
531
392
333
340
345
356
370
383
390
387
364
336
331
330
335
349
349
343
343
348
339
392
432
363
348
350
360
370
386
399
398
389
361
337
334
335
336
349
335
332
333
339
298
531
397
332
335
333
346
361
379
389
390
372
344
327
325
330
339
347
335
332
336
341
277
566
399
328
338
343
352
369
388
390
387
362
332
325
323
327
335
342
329
329
331
332
272
534
373
323
324
335
344
363
380
384
380
353
326
321
320
322
338
337
330
331
335
324
395
429
350
333
340
351
365
381
391
392
381
349
328
328
333
338
353
345
342
346
347
285
588
419
343
349
354
365
371
390
398
395
378
344
333
333
331
346
343
336
343
335
326
410
403
339
332
332
347
356
367
386
380
367
336
316
313
319
337
340
330
336
338
342
289
522
386
332
336
348
359
373
389
393
382
354
327
323
326
332
348
337
330
332
337
300
535
407
334
333
339
346
360
379
392
390
373
338
323
322
326
339
331
325
328
333
328
374
438
350
329
330
337
345
361
374
377
367
335
315
314
320
331
330
327
332
338
336
337
462
363
336
344
355
367
384
398
400
392
359
343
341
342
354
350
342
341
346
337
400
436
360
343
349
360
369
383
395
401
390
357
335
332
336
348
337
332
336
339
303
515
398
327
330
334
344
358
373
387
383
361
331
319
317
329
338
320
316
316
318
261
548
396
321
328
335
348
362
378
385
385
357
332
322
327
336
346
335
336
339
342
288
526
396
338
343
352
363
380
392
397
388
359
332
326
330
345
346
341
335
342
337
346
450
362
332
337
346
356
370
383
384
378
338
320
316
319
330
331
323
327
331
327
356
438
354
330
339
351
364
374
387
387
376
346
324
324
322
335
332
322
325
329
311
408
417
336
330
337
348
362
377
387
390
374
341
329
327
330
339
328
322
324
326
298
482
405
326
323
328
335
352
371
378
383
368
336
321
320
326
336
332
326
333
336
313
464
418
341
336
341
351
362
381
390
392
380
350
334
335
337
347
344
337
335
341
335
351
453
363
337
344
350
358
376
388
393
381
351
331
327
328
336
341
333
334
338
341
289
504
389
342
346
354
372
385
396
396
392
370
346
338
338
350
352
336
334
342
332
282
527
401
331
330
339
352
363
379
392
377
356
323
321
319
325
338
329
326
329
334
279
581
407
331
336
344
351
372
385
389
383
361
329
324
329
329
343
339
330
335
338
284
585
413
326
336
339
349
369
385
390
391
368
337
322
323
328
348
329
325
333
334
268
603
411
333
335
343
353
369
388
388
385
358
333
320
323
334
340
331
330
331
332
293
501
379
327
335
342
355
372
386
387
376
348
327
329
334
341
336
330
337
334
295
542
421
338
341
348
357
368
387
393
395
371
344
331
334
345
348
346
342
342
345
299
503
389
335
342
351
362
372
389
391
382
350
323
325
324
335
330
320
323
327
286
530
404
324
329
331
348
363
382
390
389
361
334
322
330
346
343
334
337
341
340
308
489
384
336
341
352
361
379
393
392
385
353
326
327
332
346
341
334
338
340
305
530
408
336
335
341
349
363
382
392
392
371
340
322
325
332
336
328
328
329
334
268
563
393
331
335
346
355
370
387
395
390
351
331
327
332
348
341
334
336
333
324
419
429
346
335
339
350
365
379
392
391
378
347
331
332
333
348
337
335
340
340
291
586
426
336
344
349
360
368
383
394
399
379
334
327
332
335
347
333
332
334
339
262
608
402
335
341
347
362
373
388
393
389
359
330
327
323
334
333
325
325
331
333
309
491
365
329
334
338
350
365
379
381
379
344
322
322
325
336
334
327
325
331
324
354
453
351
327
335
342
350
365
376
379
371
341
319
317
322
328
336
328
327
332
335
286
521
375
327
335
345
357
371
382
389
387
355
335
329
332
333
350
341
338
343
347
290
598
426
336
341
348
354
366
382
391
392
376
344
334
334
336
349
347
344
345
350
336
386
441
366
347
352
358
372
385
394
396
388
362
336
340
338
353
350
343
339
340
343
290
511
403
336
339
347
354
372
387
390
382
355
330
322
327
330
347
339
330
335
339
301
541
409
344
343
349
361
376
396
400
396
377
348
334
334
340
349
354
342
342
341
342
294
522
387
334
335
342
352
367
384
386
381
350
323
316
317
321
333
323
315
322
324
286
522
397
322
322
327
338
348
368
382
382
365
332
318
318
323
335
335
327
327
329
327
316
455
365
329
336
346
353
372
386
390
378
349
329
330
335
340
347
338
336
340
343
279
579
419
335
343
348
355
369
387
391
388
370
333
323
325
331
343
332
330
333
335
296
527
402
336
335
341
346
362
376
384
384
364
335
322
318
324
342
337
327
329
335
329
377
424
361
340
344
357
368
387
397
402
385
350
329
324
331
337
346
333
330
330
334
265
608
399
323
327
335
342
359
374
386
382
358
325
319
322
327
341
333
327
329
334
312
456
420
337
329
333
342
357
375
387
389
375
338
323
324
329
336
336
328
326
327
328
287
529
371
328
334
340
352
366
382
387
384
353
327
327
333
337
346
333
333
335
334
268
618
398
330
334
343
353
368
383
386
390
364
334
327
339
324
346
338
335
337
337
283
586
414
332
335
348
360
374
389
396
398
381
350
340
342
346
356
347
341
343
344
323
449
426
351
343
350
358
371
381
395
395
383
354
335
333
333
345
338
325
326
330
329
349
407
355
326
334
340
354
370
382
381
371
346
326
327
331
347
347
337
336
337
338
301
488
389
336
342
350
365
376
395
390
382
353
329
324
324
331
340
329
327
327
336
278
600
416
341
349
356
365
373
371
364
355
324
294
283
287
288
305
298
298
304
313
275
597
435
364
371
382
387
398
412
416
419
397
359
347
351
350
362
352
342
339
349
280
596
418
328
330
330
340
350
364
371
372
356
325
319
321
328
343
330
334
338
334
266
618
408
325
328
341
351
368
379
386
386
365
331
320
320
325
330
317
318
316
326
243
555
375
307
312
320
332
345
361
367
364
341
314
311
312
326
323
314
317
319
311
336
436
339
315
323
332
343
357
365
369
364
337
319
320
323
336
328
323
326
327
283
566
412
322
331
342
354
366
380
387
392
375
348
337
342
345
350
340
342
347
348
284
567
404
346
353
365
376
390
401
401
399
374
350
345
346
358
349
343
344
340
320
452
418
348
344
350
356
369
380
387
393
382
349
339
337
345
347
335
333
328
332
276
530
399
321
328
334
338
360
375
378
375
351
321
316
320
333
334
322
323
353
357
326
476
397
365
377
389
405
424
435
430
419
386
364
354
352
362
355
335
335
331
321
351
417
342
313
321
328
340
361
372
381
374
359
364
388
439
622
662
664
664
665
665
665
665
665
665
665
665
665
665
665
665
665
665
664
663
661
633
568
528
500
468
372
659
448
350
338
328
322
318
311
308
295
261
217
198
195
195
194
185
183
178
175
136
327
211
171
176
189
202
220
234
240
235
209
193
196
199
216
213
209
217
222
200
367
324
248
248
260
271
285
309
320
326
313
276
271
271
271
291
282
281
282
293
233
500
371
297
310
315
335
343
370
375
376
351
323
315
319
334
345
334
337
337
342
287
529
401
339
347
360
369
389
404
414
403
368
348
342
344
354
362
352
349
350
357
295
550
401
344
345
352
363
381
400
396
394
362
339
339
343
351
357
345
343
348
351
284
574
404
347
355
361
375
390
404
406
397
365
338
334
334
342
350
344
341
342
340
267
594
396
328
339
347
350
368
383
391
384
354
327
320
321
326
331
320
322
330
324
252
594
386
315
318
326
337
351
365
370
370
347
319
315
319
322
338
334
333
338
343
299
534
427
334
335
344
354
370
383
393
389
373
337
329
321
317
337
326
315
317
320
293
468
380
316
306
308
311
323
333
340
334
310
277
269
265
265
285
274
254
248
248
241
270
320
256
219
209
203
202
210
214
227
241
254
269
281
292
304
325
325
326
335
349
298
648
451
391
394
397
398
410
416
415
392
346
298
269
256
237
236
207
174
136
97
18
256
92
0
0
0
0
0
0
0
0
0
0
0
0
0
42
103
152
202
265
308
445
494
457
561
654
662
664
665
664
665
664
665
665
665
666
666
666
666
666
665
665
665
666
665
664
663
662
658
633
618
588
551
493
450
430
413
406
386
363
353
342
314
396
378
299
280
278
277
282
291
298
296
280
246
225
220
215
223
211
204
204
209
190
334
275
223
215
222
230
240
260
268
270
253
217
195
181
179
178
148
123
89
37
0
88
0
0
0
0
0
0
0
0
0
0
0
0
0
0
0
0
0
0
0
0
152
85
25
53
80
111
147
191
222
247
249
238
241
259
271
295
301
309
324
337
284
636
435
367
387
404
415
439
463
471
473
449
426
420
407
408
405
397
401
410
417
375
612
472
427
437
449
461
482
494
502
498
466
440
437
439
454
447
443
440
441
424
547
534
438
427
435
444
454
468
473
467
449
417
402
401
399
411
398
391
393
393
333
649
465
375
377
378
384
392
408
414
413
389
359
349
349
345
353
344
341
341
343
267
613
390
330
337
344
357
369
386
390
387
361
335
328
331
337
341
334
333
336
336
312
493
363
335
339
347
355
368
380
384
378
350
327
324
324
336
333
327
331
333
318
458
429
341
339
347
355
364
378
385
388
378
348
330
332
331
346
345
336
331
336
297
533
410
331
332
340
348
359
373
380
377
364
334
323
324
328
337
327
324
327
329
264
607
405
324
330
332
340
356
367
372
376
359
332
322
326
332
340
332
332
336
334
275
541
395
334
340
347
357
369
378
383
384
364
337
335
332
344
347
338
338
338
335
331
413
367
331
340
346
356
377
379
378
373
342
322
318
323
341
335
326
326
333
306
481
380
336
334
337
345
354
372
382
374
359
337
323
322
329
344
334
329
329
333
285
556
401
333
336
344
354
366
385
389
384
359
331
321
323
328
343
333
328
332
335
268
596
392
324
332
340
348
364
383
388
386
357
328
323
327
339
340
331
336
338
339
310
486
372
334
344
351
364
384
397
403
390
357
337
336
335
348
344
340
343
345
319
490
423
347
348
354
361
375
389
397
402
383
351
337
336
341
341
332
329
332
334
276
524
390
326
329
337
346
366
377
381
376
346
320
315
319
333
333
323
322
321
318
391
374
338
326
334
343
357
376
390
388
374
343
330
327
333
350
339
334
336
340
297
544
405
334
338
345
357
368
383
393
395
373
335
327
331
335
349
338
334
339
339
274
611
401
331
336
344
352
371
390
396
392
364
335
328
329
339
341
333
332
334
337
292
514
378
332
337
344
357
375
390
396
386
354
328
329
330
341
343
331
333
338
336
315
475
375
337
342
351
360
377
391
396
385
350
325
322
327
337
339
332
335
339
336
308
483
375
336
340
350
358
376
390
395
384
353
334
332
335
343
349
343
339
346
345
289
532
386
335
345
353
363
377
394
400
389
361
335
326
331
336
348
336
332
335
338
273
575
410
337
342
352
359
373
388
397
396
371
339
332
335
340
352
346
342
342
349
290
577
418
337
338
347
352
363
378
386
383
363
330
317
319
319
334
328
323
323
327
278
536
394
327
332
333
343
352
374
378
376
352
324
315
311
319
339
332
325
329
334
303
491
400
333
327
335
342
355
375
384
383
365
333
320
318
323
330
335
325
327
329
325
331
465
352
327
329
338
351
368
382
389
378
344
325
322
322
329
336
329
328
332
329
287
527
371
332
336
345
353
371
387
397
391
358
334
330
333
335
341
333
335
339
338
297
510
382
335
340
349
358
376
390
398
390
360
335
333
336
346
354
346
342
343
345
295
502
392
341
349
354
361
372
383
387
382
356
327
322
323
329
338
323
321
329
331
283
479
386
331
338
343
354
371
384
393
383
361
334
326
330
341
345
332
331
335
336
287
493
383
329
332
340
350
370
384
387
382
353
328
329
327
337
347
337
335
336
343
277
577
405
333
339
347
358
374
392
396
393
371
344
338
345
347
363
354
347
349
348
302
557
418
338
345
348
354
364
380
386
390
371
339
327
329
330
342
336
332
331
332
312
466
419
340
338
347
359
369
384
395
395
382
345
325
324
324
339
332
326
329
334
322
424
424
342
331
334
341
350
366
379
381
372
338
321
317
322
331
332
326
327
326
322
317
447
347
316
315
328
343
360
375
382
376
346
325
321
322
323
335
323
326
330
333
265
591
399
325
328
335
344
359
373
376
372
354
329
315
313
313
326
323
315
316
320
303
404
404
324
316
322
332
342
355
365
370
362
332
314
313
315
318
329
321
320
326
329
265
577
402
327
335
339
352
367
381
393
395
371
343
330
329
335
348
349
342
337
344
340
286
520
405
337
336
346
355
363
387
386
384
355
333
322
324
332
345
345
335
330
335
325
382
392
345
331
335
347
361
379
389
392
381
352
335
330
336
342
356
346
345
343
347
302
547
406
326
325
338
357
371
393
400
399
383
351
337
337
346
355
367
354
352
351
351
274
630
401
335
340
345
353
370
386
392
389
360
331
328
329
328
345
338
330
334
334
317
448
425
336
330
337
344
355
369
382
385
373
335
321
323
329
332
339
327
329
331
335
260
621
387
325
331
338
346
359
374
378
377
351
322
317
318
321
334
330
327
326
327
297
504
412
327
327
336
345
356
375
384
385
375
344
327
327
331
335
342
329
332
333
336
262
614
388
328
337
345
354
368
380
385
384
361
334
328
331
333
348
342
334
338
341
327
431
437
348
337
344
352
361
377
389
390
382
350
332
329
331
335
348
335
330
335
340
281
591
412
335
339
349
359
372
386
392
392
381
351
340
338
338
352
350
340
338
342
340
313
443
382
338
340
346
356
369
378
377
371
344
323
315
321
326
340
326
319
323
329
281
535
397
328
331
342
345
364
382
386
386
364
335
323
322
328
344
341
327
325
327
330
278
496
370
315
317
326
337
355
370
374
366
339
315
312
313
318
338
333
325
329
332
307
452
412
334
326
333
345
361
372
386
386
373
343
323
320
328
336
341
330
327
327
331
266
590
403
326
339
330
338
362
379
384
384
359
330
323
329
337
349
345
339
340
348
346
334
479
376
340
347
353
371
382
394
401
390
359
334
323
333
336
348
343
338
334
341
318
466
410
340
331
338
351
362
384
395
390
374
338
326
323
329
337
342
333
330
333
331
287
564
406
336
336
345
356
376
393
398
398
367
332
317
320
327
334
347
335
329
333
334
280
581
409
332
335
345
355
369
385
391
389
366
331
316
319
315
323
335
320
329
330
331
270
557
410
328
334
339
353
365
382
393
392
370
334
321
326
331
331
346
336
333
337
338
318
448
428
339
334
337
344
357
377
385
391
378
340
321
321
323
329
345
339
328
334
334
336
312
481
368
332
340
347
358
374
389
396
387
356
335
334
335
341
348
353
343
347
349
351
293
596
416
337
345
350
359
371
389
399
398
374
337
331
332
337
339
353
343
338
338
342
319
459
404
341
336
337
349
362
379
391
388
377
341
323
319
324
326
345
343
327
332
334
335
280
523
383
327
331
339
353
368
386
390
384
354
326
321
319
323
329
343
336
330
331
337
328
377
427
352
330
334
344
356
375
390
392
381
348
323
321
322
329
333
345
334
334
339
340
299
528
412
331
332
334
345
357
374
388
389
373
340
327
325
325
329
342
346
339
338
341
340
277
577
412
327
337
344
350
363
380
393
389
363
333
321
320
327
331
343
330
333
329
336
323
417
400
345
328
337
348
360
381
399
395
382
349
327
329
332
335
352
352
333
337
338
340
280
556
392
327
338
346
358
376
392
396
388
355
327
316
322
328
338
350
340
335
340
342
314
489
413
339
332
342
348
364
381
391
395
377
345
325
324
324
333
344
341
330
334
338
338
270
589
395
329
336
341
351
369
383
390
387
361
331
322
324
328
333
346
341
337
341
343
314
486
420
337
335
340
349
366
382
396
396
380
345
328
327
330
335
348
342
334
335
337
337
289
510
378
333
339
346
356
373
389
395
388
360
335
330
333
334
344
343
336
335
337
341
276
564
405
333
336
341
351
369
383
390
386
361
333
322
324
330
346
343
331
329
334
334
273
565
395
322
331
339
355
375
390
396
393
368
340
330
330
332
345
347
335
338
339
343
280
587
404
328
338
344
355
369
390
394
391
366
334
323
323
328
339
341
328
328
333
337
268
602
400
324
332
340
347
363
379
389
385
360
330
320
325
328
346
335
331
331
333
334
325
466
364
328
334
344
357
376
390
391
383
351
324
322
326
338
340
330
328
331
333
272
591
404
326
333
338
346
363
380
387
387
366
333
323
323
330
343
335
331
333
334
302
489
414
336
337
343
353
367
376
392
390
377
344
325
329
335
343
332
330
331
338
315
450
401
339
332
336
345
353
375
385
384
369
336
324
324
335
344
332
328
328
329
306
481
396
334
329
337
350
364
384
395
392
376
344
329
328
331
343
338
330
334
335
315
476
410
335
328
335
343
358
377
389
390
373
336
323
325
329
342
334
331
331
337
312
483
412
336
330
334
346
359
377
387
392
372
339
323
326
329
342
333
330
334
335
322
419
436
342
331
339
347
361
378
386
393
380
343
326
329
328
342
335
331
333
335
331
345
473
357
331
335
344
358
374
387
390
384
351
330
330
328
337
336
329
328
331
332
276
559
376
325
330
339
353
370
382
387
381
354
328
322
324
326
342
332
328
331
333
329
352
463
348
325
330
340
351
365
378
383
378
348
323
321
323
327
337
335
327
330
334
339
271
594
390
327
333
341
352
366
379
385
389
363
332
325
327
333
336
347
336
334
337
342
292
577
423
331
334
341
350
363
377
387
389
374
342
327
326
327
333
343
343
332
334
338
339
314
486
368
331
336
346
356
372
383
388
384
357
333
328
332
339
340
348
338
342
346
350
280
553
406
336
341
354
359
373
385
391
387
364
333
324
322
328
342
338
333
327
335
334
275
510
395
330
335
342
354
367
388
389
381
353
328
322
320
328
338
336
323
316
316
310
252
515
365
303
312
316
328
348
365
369
365
341
315
309
307
315
327
331
318
318
320
323
258
575
393
318
327
338
349
366
381
388
385
359
331
324
327
333
339
349
338
338
340
344
275
593
406
331
335
342
351
365
378
384
384
359
328
320
321
323
333
337
329
332
334
337
267
582
403
326
333
342
352
367
385
395
390
367
337
328
329
330
341
343
336
337
339
338
283
544
398
332
340
344
357
370
387
394
387
357
329
323
323
330
346
347
335
334
335
338
274
563
400
329
336
344
349
369
388
398
390
364
334
323
324
329
335
348
337
335
337
342
302
534
409
336
339
344
354
369
386
395
397
376
341
327
325
331
332
348
339
332
334
338
335
352
447
356
332
337
342
354
374
390
394
385
350
325
324
323
328
340
344
334
336
340
344
279
591
413
336
341
347
357
374
390
399
399
369
340
330
330
334
335
350
344
339
344
347
337
353
450
363
339
346
349
360
378
394
399
386
353
328
327
325
325
341
340
328
329
328
327
271
556
398
323
328
336
348
366
379
392
387
358
328
313
309
315
326
342
328
321
325
328
331
336
436
357
328
338
343
355
376
392
393
381
351
322
322
319
325
335
344
329
328
330
332
292
528
395
324
330
333
342
358
381
390
390
370
335
319
318
321
324
339
340
330
333
333
340
280
544
387
328
336
341
356
372
388
397
394
371
336
325
330
333
341
346
339
335
339
338
286
554
403
328
333
343
348
364
383
392
392
368
333
321
319
326
337
342
331
327
327
334
299
529
401
332
336
341
349
363
384
394
394
373
341
323
323
331
338
345
336
334
336
340
308
509
406
335
335
338
347
362
383
394
394
374
340
325
324
325
334
339
328
330
334
336
280
578
406
328
333
340
348
363
379
391
392
373
338
325
324
329
344
336
333
331
334
337
272
581
391
326
332
337
349
365
375
385
383
353
324
314
318
323
334
327
324
326
328
316
428
417
333
325
331
339
354
370
381
384
373
341
322
322
323
338
343
339
330
334
337
273
558
395
328
338
344
360
367
388
391
386
363
330
322
324
337
339
331
328
331
335
275
546
389
317
325
329
342
360
379
385
384
368
333
322
323
329
341
334
326
334
337
325
428
400
347
329
338
345
361
378
392
389
377
347
325
323
331
342
340
332
333
335
341
279
561
386
331
339
344
355
374
390
397
390
360
329
324
327
338
342
325
316
314
317
258
560
382
307
313
318
329
343
362
370
371
351
320
309
311
319
329
319
317
319
324
291
500
393
324
324
331
341
354
374
385
387
379
339
324
324
328
342
336
328
334
334
327
406
405
357
340
344
351
367
385
402
392
384
349
330
330
330
350
337
332
334
338
337
359
421
364
337
341
352
361
380
388
391
378
348
328
324
330
346
347
337
335
337
339
290
528
385
331
340
344
355
371
386
394
385
355
330
323
326
329
340
330
328
330
334
273
593
400
328
333
343
354
368
387
395
391
368
333
326
330
330
346
335
334
337
339
295
554
408
336
340
346
356
369
388
397
397
376
344
328
325
329
343
338
332
339
338
318
458
409
341
334
340
349
357
376
389
391
371
338
320
322
330
337
331
323
329
331
320
378
403
343
325
332
343
352
373
388
386
372
339
320
315
318
334
332
326
326
330
332
311
447
362
331
336
341
352
375
391
390
379
348
325
322
323
333
342
332
329
333
339
272
579
393
326
333
339
352
367
386
391
384
357
328
319
323
327
341
333
327
335
334
289
560
400
331
334
342
349
366
385
394
394
371
336
322
325
325
342
335
329
332
336
321
438
414
343
334
341
347
357
378
392
393
379
342
323
323
325
340
336
331
332
335
332
349
451
355
334
343
347
357
377
390
394
385
353
336
331
335
344
345
338
338
342
338
316
502
370
335
341
350
363
375
391
396
388
354
326
324
329
335
341
332
331
331
335
278
567
389
327
330
341
351
369
382
389
385
360
333
323
325
331
339
328
327
334
339
278
541
394
333
342
347
356
372
388
394
388
359
331
325
322
336
334
323
325
330
331
317
421
363
329
331
339
352
366
384
386
377
348
324
321
325
343
335
326
332
332
330
394
407
355
334
341
346
356
373
385
387
373
338
318
318
321
334
329
320
320
325
310
414
395
334
324
332
340
351
371
383
385
370
336
317
276
237
230
213
205
207
215
177
422
304
234
247
260
276
296
325
343
354
341
314
303
308
316
330
315
313
322
325
279
540
398
342
355
366
380
397
419
427
426
402
377
371
375
389
392
381
385
386
385
343
543
427
380
387
397
410
428
442
442
434
398
375
368
373
381
383
369
370
368
367
341
496
392
353
359
366
376
394
409
408
395
360
333
325
328
343
339
330
330
332
331
345
435
354
329
334
341
354
374
386
390
380
343
321
317
321
335
334
325
326
329
325
340
433
352
328
334
340
354
370
387
393
380
349
324
323
325
338
338
330
332
335
332
351
436
355
331
337
347
360
372
385
386
375
344
322
318
318
333
336
326
330
333
327
330
423
354
330
331
341
351
371
385
387
379
345
320
315
323
336
330
319
320
321
325
307
416
350
316
321
318
343
362
381
381
371
346
325
321
327
338
349
335
334
334
339
278
563
386
332
338
349
359
371
391
395
391
360
331
324
327
331
349
337
331
332
334
289
559
398
328
331
336
350
361
382
391
391
370
338
321
323
325
338
334
328
329
332
320
405
417
348
328
335
344
359
378
391
395
380
346
327
326
330
344
348
338
340
342
343
319
476
373
339
347
353
365
382
397
408
392
365
339
337
341
339
348
335
333
334
340
278
548
391
331
339
342
353
369
391
391
388
360
327
318
322
334
338
326
323
324
329
267
559
391
329
336
347
358
377
395
400
394
367
337
325
331
334
350
342
335
336
340
314
493
404
337
335
338
348
361
381
394
393
376
344
325
324
328
338
342
333
332
337
332
331
469
357
329
335
340
352
371
386
393
383
349
327
322
329
336
343
335
333
337
339
282
571
382
332
339
346
356
374
389
392
389
359
329
324
327
331
339
330
329
333
336
262
623
393
328
334
342
350
365
382
386
384
358
329
320
327
330
339
330
327
333
336
262
627
397
330
335
345
354
369
384
388
387
364
332
323
330
334
338
328
328
331
335
266
592
392
330
337
345
358
371
385
387
384
360
333
324
327
336
344
334
336
338
339
276
568
396
332
338
347
355
370
382
390
388
362
336
324
324
335
339
328
323
329
325
280
486
379
322
331
336
351
367
381
385
378
357
332
322
323
336
335
321
320
313
327
316
422
356
324
331
342
359
374
388
394
383
352
329
325
332
348
342
338
337
339
338
382
445
357
337
341
351
365
385
396
403
384
353
333
333
337
352
349
340
341
343
323
485
425
342
341
346
355
371
389
398
400
382
347
332
335
340
350
342
339
337
339
273
638
404
326
329
336
348
362
381
388
388
363
331
321
324
332
336
329
329
332
315
251
506
322
279
289
297
310
330
347
355
351
322
297
296
302
318
311
311
315
322
298
505
410
332
334
342
354
368
385
396
399
383
350
333
337
341
353
341
341
345
346
281
630
416
338
345
353
362
379
391
394
391
370
341
330
336
344
350
340
340
344
344
282
536
388
332
341
350
361
376
393
391
388
368
337
333
333
352
351
337
342
342
340
323
435
374
335
341
348
360
374
385
389
379
350
333
327
329
345
339
335
335
339
323
428
394
345
336
346
354
369
385
393
392
375
344
327
328
333
347
341
333
335
338
317
465
398
340
333
338
347
363
380
391
390
372
341
327
328
331
347
338
332
333
339
317
465
412
341
336
342
351
362
381
389
392
375
342
327
327
329
342
339
333
335
338
321
432
410
345
335
340
353
361
380
393
395
377
344
325
325
327
341
336
329
328
333
328
352
408
347
328
335
343
354
376
385
385
372
339
317
311
317
332
334
319
319
324
327
274
520
373
322
331
341
353
372
388
391
386
355
329
321
323
331
345
334
332
336
339
287
576
404
336
340
348
359
374
394
398
400
377
345
337
335
338
352
352
341
343
347
344
329
474
374
340
346
355
368
385
402
406
396
364
341
341
346
348
362
360
353
357
362
360
342
480
383
350
356
362
373
391
405
405
393
363
338
334
336
337
352
349
336
340
342
341
320
444
364
329
337
342
355
373
387
387
380
348
322
314
317
320
334
334
326
323
329
331
297
458
368
325
329
339
347
363
372
373
364
334
305
300
297
307
321
317
308
311
313
315
275
475
358
314
322
332
346
362
379
384
374
344
316
312
316
324
331
338
327
329
334
336
271
581
396
329
335
344
353
371
389
393
390
364
334
326
325
330
337
348
340
338
340
344
288
571
412
338
345
352
362
376
391
404
401
375
346
339
337
344
348
357
353
348
350
353
320
513
413
346
347
354
363
372
391
401
400
381
350
330
323
330
332
351
336
332
333
334
310
475
390
334
332
338
348
357
380
386
384
367
338
320
316
323
328
345
337
327
330
332
309
471
394
336
329
334
345
358
380
388
390
369
337
321
314
323
329
344
335
327
331
333
313
440
404
337
331
336
344
358
380
391
389
372
339
320
318
321
324
339
334
325
329
332
317
426
411
340
330
337
345
356
378
392
392
384
347
328
328
329
335
349
339
336
339
340
319
463
401
345
337
344
354
363
385
393
395
378
347
327
322
327
343
345
335
334
339
340
283
570
397
334
337
344
356
368
390
396
393
371
340
325
323
330
342
345
331
332
338
338
272
590
393
328
333
339
352
369
386
393
390
366
336
325
325
328
342
341
329
332
334
335
277
548
379
328
336
342
354
371
386
393
388
360
331
324
325
331
345
337
329
332
334
328
360
430
349
327
331
341
353
368
383
386
376
347
320
318
321
325
338
332
325
327
329
297
492
396
326
328
332
342
355
376
383
381
367
334
319
314
322
331
333
325
324
329
331
272
535
387
323
327
335
350
367
384
387
384
357
324
320
320
333
346
333
329
335
335
305
509
389
335
335
341
349
367
384
396
392
373
340
325
325
332
346
345
335
338
336
341
294
519
382
335
342
349
362
378
394
396
389
358
330
327
328
333
349
339
334
337
338
314
487
405
338
337
343
350
363
380
388
388
371
337
323
322
327
340
344
337
340
344
346
284
553
395
339
347
353
364
382
396
400
393
362
334
329
328
334
347
336
330
334
339
306
504
391
329
329
336
342
359
375
383
381
364
334
315
312
317
332
333
323
319
326
328
276
527
379
324
333
343
354
371
385
393
383
357
329
323
325
329
345
337
327
334
339
338
314
473
367
332
340
348
360
377
392
395
386
357
331
322
325
332
344
343
337
337
343
346
287
536
390
337
343
351
362
378
398
403
395
368
340
332
331
336
344
346
335
340
338
341
280
540
391
332
336
343
351
370
385
390
385
354
328
318
317
321
341
334
322
326
328
327
286
485
366
322
326
336
349
367
380
384
375
345
321
313
316
321
338
333
326
329
335
334
306
473
363
327
334
343
355
374
390
395
385
355
328
321
324
331
343
342
332
336
337
339
289
518
381
332
339
346
356
373
390
396
393
360
333
324
327
333
344
338
336
333
337
341
314
473
373
336
341
344
359
376
394
398
384
353
329
321
321
323
344
330
324
327
331
316
441
389
332
328
337
345
359
378
393
391
376
345
325
324
330
338
348
337
335
338
342
297
554
402
333
334
342
349
366
385
392
392
369
336
321
321
328
340
346
337
335
338
340
278
589
407
332
339
346
355
372
391
397
392
369
341
331
331
335
343
347
338
338
340
339
278
572
396
329
336
344
355
370
387
393
387
358
329
323
322
327
342
334
322
325
328
329
328
425
358
329
331
340
348
367
387
387
377
350
325
321
325
329
346
338
332
334
334
316
442
401
341
331
335
344
357
375
388
387
368
337
319
316
320
327
342
332
327
331
333
312
457
401
336
330
337
347
358
379
391
391
375
342
322
322
326
334
348
339
336
340
345
302
530
411
338
340
342
352
365
384
395
394
374
341
324
323
327
340
344
329
333
333
333
275
553
392
331
334
346
355
371
390
394
387
362
332
323
326
329
349
344
333
338
342
341
325
461
369
335
341
348
359
381
393
393
383
353
329
324
328
335
351
341
333
334
338
324
445
409
343
337
344
353
367
384
396
397
382
347
327
326
329
336
344
335
335
337
338
280
570
404
330
338
346
354
370
390
398
392
369
336
326
329
329
344
338
332
335
341
337
341
427
362
335
342
345
362
377
393
393
380
348
326
320
323
332
343
331
329
335
336
290
553
395
332
337
345
354
373
389
400
395
375
341
328
327
331
346
343
331
334
336
336
278
547
382
327
333
339
351
367
384
389
382
351
324
318
318
321
340
333
326
329
330
321
374
415
341
328
336
341
355
369
383
385
371
337
315
314
315
322
335
325
321
326
329
288
523
397
325
324
333
341
356
373
384
383
363
329
313
312
317
327
334
321
324
326
330
268
557
391
324
329
337
349
367
381
389
380
357
326
323
322
330
343
346
334
334
338
341
281
583
403
335
345
350
358
374
392
397
394
367
340
330
330
337
348
351
340
340
345
344
283
580
399
335
342
349
357
375
392
399
393
363
330
322
324
329
337
343
336
334
340
340
277
577
410
335
339
343
355
372
388
397
390
369
337
322
322
325
337
338
331
327
331
338
278
546
395
325
337
339
352
372
391
388
385
357
330
319
319
328
346
340
332
335
338
334
349
430
357
331
338
344
356
371
383
388
374
345
321
320
323
333
345
335
327
319
317
300
410
390
324
315
326
333
349
367
381
382
368
339
317
315
320
327
339
328
328
333
335
281
571
402
327
334
343
352
369
387
394
394
375
339
333
332
337
350
345
339
341
343
342
330
459
370
338
345
350
361
380
397
399
389
359
331
328
333
344
349
338
338
339
338
281
564
404
332
337
341
351
366
383
390
388
364
333
321
324
327
341
333
327
330
333
303
480
396
328
329
334
342
356
373
382
386
367
333
316
317
317
333
333
324
324
330
330
299
454
364
330
336
348
359
375
386
389
384
355
330
321
324
335
336
327
329
334
337
283
507
382
333
337
345
358
371
389
390
382
358
334
326
326
345
349
336
333
337
342
285
571
397
332
338
347
358
378
393
396
388
363
334
325
331
339
352
342
338
340
343
287
587
405
331
338
346
353
371
388
394
393
367
335
324
327
332
348
336
332
335
338
302
528
401
330
333
336
348
360
382
392
389
371
335
321
324
326
341
333
331
334
333
303
507
401
332
335
340
348
363
379
390
390
374
341
323
325
326
342
336
329
333
336
307
491
408
339
336
344
352
363
379
388
389
375
338
323
322
327
340
330
326
328
332
294
508
386
328
331
341
350
365
382
393
390
371
341
323
328
337
352
342
335
338
345
297
562
401
337
339
345
355
371
389
395
389
368
336
323
326
332
345
332
329
329
333
286
548
388
325
330
337
347
360
382
390
386
368
333
322
326
327
343
331
329
332
331
295
526
392
329
331
338
349
363
379
391
389
371
337
324
323
325
343
335
328
330
335
300
501
389
332
333
341
348
361
381
394
392
374
342
325
325
327
338
335
326
330
334
323
386
395
340
324
334
340
356
373
386
391
374
343
326
321
321
342
338
325
331
331
332
302
474
370
335
338
344
357
378
392
397
385
353
332
327
333
339
351
343
340
339
341
283
592
400
332
337
346
356
374
389
396
388
366
330
321
322
317
326
308
286
282
281
264
381
353
289
280
288
297
313
336
348
352
337
303
289
291
297
307
317
310
310
313
320
263
524
371
317
325
336
346
363
380
384
381
353
324
317
321
328
341
334
329
332
333
299
508
399
332
334
339
349
362
383
393
396
376
341
328
322
331
340
344
330
333
335
337
279
536
388
334
341
346
360
375
393
395
390
363
336
328
331
337
357
348
338
340
347
336
412
410
355
343
345
357
371
391
404
403
388
357
336
335
341
346
362
352
344
345
349
294
584
407
336
343
350
361
374
395
402
398
374
342
329
327
334
343
349
336
337
340
342
276
572
393
333
339
344
358
374
388
393
388
359
328
323
322
325
340
340
331
334
336
332
323
449
359
330
333
339
349
366
385
386
379
353
324
319
320
326
340
333
329
328
330
293
511
395
330
332
341
349
360
379
385
384
368
337
316
321
318
332
339
324
327
329
330
272
542
388
323
334
341
353
368
385
390
384
359
329
322
320
328
345
343
331
337
338
331
373
421
353
333
340
348
364
380
395
395
383
349
327
322
325
330
344
338
332
333
338
293
538
401
332
332
339
348
365
381
391
391
371
337
323
321
326
335
340
333
332
335
335
272
565
394
331
337
343
354
369
386
392
389
368
335
325
323
324
340
340
331
330
333
334
294
469
370
329
334
341
354
372
387
390
384
351
327
320
323
327
342
334
331
331
334
320
460
390
337
332
337
343
362
383
391
389
375
341
320
318
327
330
347
333
331
332
336
276
577
396
326
330
338
346
364
382
388
385
363
332
317
317
322
330
340
326
325
327
330
268
552
383
324
331
338
348
366
383
388
385
354
325
318
319
323
340
339
329
332
332
329
341
426
348
325
331
341
352
369
381
388
378
347
323
316
318
323
337
329
323
325
333
290
527
398
331
329
336
345
362
381
389
383
365
328
308
308
311
327
331
318
320
323
326
278
483
366
318
325
335
349
366
385
385
379
352
324
318
324
326
345
336
328
333
333
320
436
400
338
330
337
347
358
377
388
390
376
340
321
320
325
335
343
330
331
332
333
269
582
396
327
333
342
351
367
385
390
387
360
330
321
323
326
340
335
328
331
333
330
344
426
348
328
334
347
357
374
385
390
386
356
328
329
332
339
348
341
336
341
340
280
559
406
337
341
348
360
372
391
396
390
367
336
325
325
331
348
340
332
332
335
320
454
392
340
334
342
352
366
384
393
393
377
343
326
322
328
337
345
333
329
334
335
268
579
386
324
331
336
349
364
378
386
379
355
324
314
316
318
334
330
327
330
332
317
443
408
338
332
340
348
362
379
392
394
382
347
327
323
325
340
341
331
332
336
337
273
557
395
331
337
344
355
371
390
394
390
365
336
327
332
333
349
342
334
336
338
312
486
399
337
331
341
343
361
383
394
390
376
343
324
319
327
343
339
330
331
333
336
336
432
360
332
339
346
360
375
392
392
381
348
323
321
326
333
343
332
329
329
332
268
585
390
323
329
338
346
362
379
387
381
354
321
314
316
318
338
328
324
328
328
310
438
400
330
325
332
340
353
372
386
386
373
335
319
317
321
331
337
329
329
334
340
277
578
401
331
336
344
352
364
382
389
382
360
325
316
321
323
337
330
324
327
333
295
516
393
330
329
333
350
361
380
395
391
371
339
327
327
335
352
345
341
341
343
345
355
440
365
340
346
354
367
385
397
395
383
353
327
323
329
337
345
334
329
333
336
271
597
394
328
331
341
348
364
381
389
384
357
323
318
317
324
338
329
323
325
328
308
460
395
328
324
333
341
356
375
385
384
368
336
317
315
319
334
332
324
327
326
331
303
462
363
326
333
343
353
371
387
392
384
350
325
320
325
330
342
333
328
336
337
281
571
408
330
334
340
351
364
383
390
387
369
331
319
318
324
341
331
324
328
325
311
430
385
332
330
335
341
356
373
387
388
370
338
317
311
319
337
336
327
329
331
335
285
518
379
330
337
345
359
377
395
398
391
362
334
326
334
339
352
342
337
339
344
292
575
401
334
336
341
353
370
387
396
393
369
337
323
325
329
343
340
330
333
337
331
347
439
356
331
335
342
356
375
387
389
377
343
322
319
321
327
341
331
329
329
331
271
565
405
322
331
342
349
369
386
396
393
372
338
324
326
328
338
331
328
331
333
318
442
397
339
330
337
343
357
379
388
391
373
340
319
320
322
340
338
330
329
332
329
335
429
356
329
335
345
360
377
392
388
380
347
326
321
327
341
342
332
332
336
338
277
582
393
330
338
343
351
370
386
394
385
358
328
320
321
332
343
331
329
330
333
292
537
396
325
330
337
345
358
378
383
385
365
330
319
317
321
334
332
327
329
331
329
325
441
357
329
336
338
351
369
382
386
381
344
325
321
323
336
338
330
327
333
334
277
522
383
326
336
341
351
369
383
387
384
356
325
320
324
336
342
329
327
332
337
273
559
392
330
337
343
353
370
387
392
382
354
325
320
323
328
344
333
329
335
335
279
575
400
323
331
336
346
362
381
387
389
363
333
315
320
326
340
331
326
329
334
290
552
405
333
334
337
350
363
379
389
384
366
334
319
323
323
341
333
326
326
331
315
433
406
336
331
337
348
359
379
386
390
373
342
318
318
319
338
335
327
332
333
327
355
407
351
327
337
344
356
371
389
388
377
345
322
319
324
339
341
329
330
333
337
286
512
378
331
336
345
356
374
393
397
386
359
332
324
330
337
351
340
335
337
339
286
590
404
330
338
345
357
371
388
395
390
366
335
322
323
327
343
336
329
330
334
320
413
412
342
327
337
345
358
376
389
389
376
341
321
320
326
334
340
331
329
333
335
271
554
385
326
333
341
350
362
377
381
376
347
319
312
315
320
332
326
321
328
332
287
542
402
327
331
337
350
362
380
388
388
366
333
319
319
323
336
325
320
320
325
316
399
379
337
325
332
342
353
371
383
383
369
340
316
318
321
337
336
320
327
332
333
312
461
371
336
344
352
364
382
395
398
387
355
334
327
334
341
356
343
338
343
346
288
599
407
337
341
349
358
374
394
399
396
368
336
328
328
333
350
340
333
339
342
320
456
408
342
338
342
351
364
382
394
394
378
345
328
331
331
346
341
335
336
339
331
377
416
347
331
340
341
360
373
388
390
375
340
321
318
321
339
331
326
328
330
322
421
389
341
329
337
345
360
377
389
388
371
341
322
320
327
346
339
331
334
336
331
395
413
349
332
338
349
361
378
390
388
374
342
322
322
327
344
337
332
333
339
333
353
436
356
333
341
348
360
377
390
390
380
344
325
320
323
339
337
331
331
335
335
316
458
366
334
337
347
363
376
391
394
385
351
323
319
319
333
337
325
326
330
330
283
496
376
324
333
339
350
365
381
380
366
337
310
300
303
317
320
311
310
315
316
256
538
371
315
326
337
346
365
381
386
376
352
325
318
322
332
343
333
330
331
336
278
589
400
331
337
342
354
372
388
394
391
367
334
326
332
334
350
343
338
343
346
312
523
411
340
340
347
356
366
382
391
392
371
337
322
322
326
341
338
332
331
336
318
431
411
336
331
337
343
356
375
384
388
369
336
317
318
317
335
330
320
328
329
315
423
382
337
328
333
338
355
374
382
383
366
337
317
318
322
342
334
326
330
330
319
412
398
342
330
338
346
356
374
384
384
371
338
321
319
324
338
338
329
331
334
328
328
441
354
329
335
343
354
373
384
386
377
347
324
318
321
334
336
327
329
335
336
301
477
372
339
343
350
362
374
391
392
383
351
327
323
323
337
343
327
329
337
337
295
481
377
333
339
344
354
372
384
385
377
352
320
319
320
337
342
324
324
323
331
292
483
372
332
340
349
359
376
390
389
383
351
325
322
329
342
347
336
336
338
340
282
555
385
328
335
345
355
374
388
391
382
353
324
316
324
333
340
326
328
335
336
282
525
383
331
339
347
358
376
389
392
385
356
329
325
326
339
342
334
334
340
340
312
471
377
339
345
350
364
380
391
395
387
352
328
327
328
349
341
331
331
338
322
423
391
347
333
337
348
361
379
387
382
364
337
315
318
327
341
336
325
330
334
288
556
409
332
333
339
352
367
384
389
385
365
331
323
326
332
345
331
330
332
334
268
597
394
325
334
340
351
363
379
384
377
350
321
315
319
333
331
323
322
329
328
319
451
354
323
329
340
350
370
383
383
375
340
316
314
320
338
331
325
329
328
305
484
408
332
330
339
344
359
375
383
385
368
334
319
322
327
336
327
327
330
333
261
575
378
316
324
329
341
359
367
378
371
343
314
314
316
332
328
325
325
326
288
542
408
326
332
340
353
365
381
390
389
371
340
328
329
344
345
335
335
341
336
318
457
367
333
341
354
359
378
385
386
383
349
329
327
331
346
339
337
337
339
289
560
409
331
337
341
351
365
383
382
384
363
335
323
325
336
341
317
322
327
330
287
502
376
329
336
344
357
376
389
391
382
351
329
323
331
341
342
332
334
338
328
374
438
350
329
335
347
359
377
386
390
378
345
324
321
330
346
339
333
332
335
309
498
409
333
333
340
346
358
374
384
384
370
336
321
321
326
342
334
328
328
331
291
539
404
326
327
335
343
362
376
383
387
366
332
317
320
326
338
334
324
328
329
300
493
407
330
328
332
341
356
374
379
377
365
332
317
315
320
335
331
325
328
332
302
495
408
331
329
337
347
359
375
384
384
371
338
323
323
328
342
336
330
334
337
300
526
416
334
333
343
350
362
377
387
385
370
339
323
325
327
343
339
331
333
338
307
498
417
335
332
339
347
361
377
384
385
372
339
321
323
329
339
338
331
331
334
327
372
443
348
329
336
346
358
375
380
386
374
344
323
320
325
331
341
332
331
332
335
268
560
383
326
333
342
350
369
380
382
378
352
325
317
322
326
341
330
329
332
333
264
602
401
326
332
341
349
365
378
383
379
356
330
317
322
335
346
338
334
338
340
284
568
416
327
332
340
349
362
380
379
381
359
330
317
323
327
343
331
323
326
327
270
562
400
319
326
334
344
357
377
381
378
351
330
311
320
331
346
336
334
337
340
278
599
403
332
341
352
363
375
389
388
383
355
329
320
327
335
351
338
334
337
341
273
626
403
330
333
340
352
366
385
390
384
363
333
322
327
333
343
334
332
338
333
270
604
390
327
335
344
353
373
388
390
384
355
330
321
329
339
341
332
335
335
334
312
496
366
329
332
341
356
374
389
391
382
350
330
327
332
344
344
337
338
340
334
366
444
355
336
347
350
366
377
391
389
378
343
317
319
321
335
329
324
326
331
302
474
389
328
325
329
340
353
372
377
377
359
331
314
318
324
331
325
322
324
332
269
573
396
326
331
340
348
367
385
389
385
359
329
320
324
332
345
335
332
335
337
274
606
399
329
339
341
353
370
385
391
385
360
329
321
324
331
338
328
326
328
327
261
562
377
319
328
339
351
366
381
384
377
347
318
314
318
331
332
325
325
328
328
308
463
354
323
330
339
352
370
384
388
375
344
321
318
320
334
332
326
328
332
329
323
452
357
328
333
345
357
376
390
388
375
340
319
316
324
336
338
331
337
341
338
317
460
366
332
336
343
355
373
388
391
379
348
324
316
321
336
335
323
324
326
332
275
511
381
328
336
343
350
371
386
387
368
345
320
314
323
327
341
332
332
337
341
283
588
400
337
345
348
358
374
390
397
389
361
333
325
325
331
346
340
333
334
339
320
453
411
341
336
340
351
364
380
394
387
373
342
320
323
326
336
343
333
332
333
335
275
546
382
326
336
344
354
372
385
388
382
355
328
323
329
332
347
342
330
333
340
299
532
403
337
334
341
352
361
382
392
390
368
336
321
319
324
340
341
332
333
333
334
305
470
370
334
338
348
362
383
398
394
383
351
329
324
329
334
351
345
338
338
344
308
513
405
334
333
343
348
363
381
390
390
369
333
317
317
320
329
338
325
326
326
328
271
527
372
326
336
338
350
365
381
389
379
350
319
311
320
322
333
327
319
322
323
280
536
396
322
328
332
342
356
372
381
379
358
325
317
315
319
339
330
325
324
329
323
382
412
345
329
335
342
359
377
389
387
374
340
322
320
324
338
344
332
332
333
337
270
582
388
330
336
343
357
374
388
391
385
355
330
323
327
336
347
337
334
337
340
276
603
404
328
332
342
355
369
385
392
387
363
333
324
327
333
344
334
332
338
340
276
591
405
328
337
347
356
369
388
392
390
367
331
322
326
337
343
329
328
333
336
279
553
394
330
336
341
353
371
386
388
382
354
329
318
323
335
337
321
325
323
326
292
480
362
324
327
329
350
369
381
385
375
344
324
320
325
343
340
332
333
338
335
330
458
360
332
336
348
359
377
390
377
348
294
257
235
236
251
252
245
260
268
273
308
397
314
300
312
329
347
369
387
392
381
351
337
341
347
364
359
354
358
363
348
452
443
367
361
368
378
390
407
414
413
396
363
347
352
355
369
359
355
357
361
320
554
430
348
354
359
366
379
395
400
398
377
345
338
340
343
353
345
340
345
349
290
564
410
335
343
346
355
368
384
385
384
356
330
315
320
335
338
326
326
330
332
281
504
384
325
331
338
353
368
383
383
375
345
322
317
322
336
332
325
328
331
330
305
471
368
328
336
344
359
371
385
387
375
344
323
324
327
343
342
333
331
335
337
312
480
367
333
340
348
361
378
389
389
380
347
323
322
326
337
336
329
327
332
330
341
441
352
327
336
342
353
373
384
383
371
339
321
321
322
336
337
330
332
336
331
358
434
352
333
339
349
362
378
392
393
383
349
331
327
333
344
341
331
338
337
320
434
397
341
335
341
348
359
377
389
385
367
332
320
318
324
339
330
326
324
323
308
461
390
335
331
335
345
361
380
387
389
371
340
321
322
330
348
339
333
336
339
327
423
412
344
333
342
347
358
380
388
385
369
336
320
321
325
340
336
330
331
331
326
357
430
346
326
332
340
353
372
384
388
376
342
322
320
323
335
337
327
332
333
333
315
465
364
331
334
344
356
372
382
384
377
345
322
321
325
336
345
333
334
338
339
281
533
390
333
336
346
352
368
384
389
386
351
325
324
321
332
339
332
329
331
337
273
555
395
328
336
343
351
375
384
390
380
352
322
314
319
329
344
333
332
333
337
289
571
404
335
340
347
357
376
389
393
388
363
335
324
323
327
344
341
330
332
337
331
371
435
346
331
338
342
355
373
388
386
372
339
321
319
325
335
342
331
331
335
337
274
563
387
331
337
347
356
374
390
392
385
356
330
325
331
336
348
338
338
338
340
284
585
409
332
339
345
353
369
383
389
386
364
333
324
329
329
345
340
334
338
341
313
485
412
339
336
344
356
365
384
390
389
370
339
322
321
325
338
339
327
331
336
332
332
421
358
330
334
341
357
371
382
383
372
337
318
316
320
329
333
325
320
324
327
267
556
382
325
335
342
355
370
389
391
382
355
328
323
328
333
351
340
334
335
339
302
529
400
332
327
337
346
360
378
386
385
367
333
319
320
323
341
335
327
332
333
326
377
422
345
326
333
343
356
375
384
387
374
341
321
319
327
334
341
329
331
334
335
271
565
385
329
338
345
355
372
388
391
386
354
330
323
327
332
345
337
334
336
337
288
566
409
329
335
341
351
363
381
385
387
368
339
328
325
328
340
338
331
332
336
335
323
435
365
329
340
348
356
375
386
388
378
344
324
320
323
335
340
335
326
329
334
283
558
392
330
333
340
348
364
377
384
382
360
335
320
323
328
343
338
329
334
335
331
353
430
357
333
339
348
361
377
390
388
378
343
329
324
330
337
351
340
335
338
340
284
578
403
331
335
344
353
367
385
395
392
368
337
326
324
328
343
344
336
338
340
339
301
500
375
336
341
348
359
375
389
390
383
352
331
329
333
337
350
342
339
344
346
300
544
417
340
341
349
357
367
384
390
388
369
337
322
322
325
339
336
330
332
334
334
319
440
363
327
334
339
356
373
386
385
376
346
321
317
324
330
341
326
324
328
331
277
579
395
326
332
341
352
367
385
388
383
356
330
319
324
328
344
339
331
333
334
330
347
444
351
327
335
342
354
371
384
384
371
338
319
312
317
323
332
323
321
325
326
269
571
395
318
323
331
339
355
370
377
376
354
324
314
314
320
332
332
327
329
334
333
292
482
369
328
337
343
351
367
383
387
383
355
328
325
330
334
348
337
333
336
340
304
516
406
333
337
344
353
368
386
391
392
372
342
329
328
326
348
342
334
333
341
342
308
480
383
341
349
353
372
381
397
405
380
355
333
338
327
339
363
358
353
351
345
303
554
407
332
332
328
341
358
378
384
379
357
329
319
322
324
340
340
333
336
334
337
281
509
379
330
336
346
358
373
390
396
385
355
331
322
327
333
346
333
333
338
340
296
555
413
332
337
343
349
364
380
392
391
361
334
318
322
326
338
334
327
332
337
334
344
440
368
334
337
348
362
375
388
387
377
341
323
319
327
335
339
329
329
326
333
272
570
399
324
330
342
347
368
380
385
380
354
327
321
321
328
344
338
332
337
336
332
377
426
356
334
339
348
358
377
390
389
375
341
320
318
323
324
334
327
325
328
329
278
565
397
324
329
334
344
360
377
385
388
363
327
314
316
318
331
335
325
327
327
329
276
529
385
322
332
342
350
370
385
386
381
352
324
320
328
322
341
335
332
333
339
333
350
441
356
331
338
347
359
377
389
392
378
346
327
323
331
329
345
333
336
337
344
329
403
421
351
333
344
354
361
379
390
395
377
345
329
322
324
332
346
335
325
332
331
304
481
392
333
333
334
348
359
379
392
384
372
332
321
312
322
334
347
332
329
331
338
287
561
406
330
335
345
350
367
390
388
393
366
337
326
320
329
338
347
338
336
342
343
290
588
408
337
340
352
356
371
385
397
394
372
337
328
326
329
342
348
338
339
343
345
280
579
397
338
344
349
358
372
387
392
386
356
335
326
328
332
350
339
331
337
340
329
421
416
346
336
339
348
362
382
392
391
380
345
327
323
330
344
341
330
331
332
335
283
510
381
329
337
343
357
372
382
390
381
353
328
321
326
339
344
333
333
337
337
284
567
402
329
334
337
346
359
376
381
380
356
325
314
316
321
336
327
323
327
329
305
452
399
329
320
325
333
347
367
377
379
361
329
315
314
320
335
330
323
327
328
321
387
423
343
328
335
342
355
372
383
386
371
338
325
325
323
336
331
327
330
333
309
469
411
334
329
337
348
357
372
381
386
369
339
323
326
330
342
334
330
336
334
288
557
415
328
332
341
350
361
377
383
384
367
337
325
327
338
342
330
333
333
338
279
521
388
333
341
347
356
371
385
388
385
360
334
334
333
346
336
329
331
335
300
499
393
329
337
346
352
368
380
389
384
369
341
327
327
339
337
330
327
338
333
341
420
361
331
341
346
362
366
383
382
374
346
329
333
344
353
340
339
338
340
277
587
401
333
339
343
355
367
383
383
378
352
327
323
326
344
332
329
331
333
299
525
402
328
331
340
351
366
380
387
383
364
330
319
324
335
337
328
330
332
322
394
411
340
327
335
343
354
370
379
381
365
336
319
321
330
336
326
329
332
332
303
468
364
328
335
340
354
371
383
386
376
347
327
326
330
341
334
333
336
334
269
564
396
335
338
347
355
365
379
383
378
355
327
320
326
339
331
323
326
332
276
539
400
329
337
342
352
369
382
383
381
354
329
323
324
343
340
324
329
333
316
452
390
341
335
340
354
364
381
389
384
363
338
323
326
335
344
334
331
332
335
279
529
381
324
331
339
349
364
377
380
371
341
318
318
316
331
328
320
323
326
292
497
397
322
326
330
339
351
366
375
377
360
328
318
318
325
337
328
328
330
330
283
490
372
329
335
344
361
375
386
3
