378
386
401
419
431
437
425
383
358
348
351
355
359
362
368
378
374
368
368
368
375
326
598
412
375
379
374
382
394
403
420
433
438
430
394
363
349
354
357
357
360
364
368
374
365
363
370
380
339
562
398
378
371
377
383
383
394
413
422
427
424
400
356
337
335
334
342
343
345
356
362
349
345
344
349
319
537
378
353
348
352
358
363
374
391
411
418
414
387
348
330
329
332
336
341
350
364
350
348
355
350
356
340
505
389
359
365
371
375
384
398
417
426
433
422
378
357
349
350
354
354
354
359
371
376
365
360
365
364
348
470
391
369
361
362
371
380
389
405
424
431
427
409
369
347
341
346
343
348
353
358
364
367
349
353
355
355
314
574
387
358
363
365
373
381
397
412
427
431
419
385
353
344
345
343
352
360
365
367
354
354
360
360
320
584
395
364
366
371
380
386
400
416
427
437
431
399
359
351
347
350
358
362
368
377
366
362
363
360
360
363
464
385
366
368
370
380
389
408
409
427
433
414
384
339
340
345
353
353
361
372
367
357
358
356
360
312
589
391
357
361
366
369
374
392
407
424
426
417
381
354
349
333
342
344
352
361
365
351
352
355
357
340
493
393
370
362
365
373
377
390
412
424
431
432
405
367
347
346
344
352
352
355
361
372
364
359
364
363
366
359
495
380
361
363
368
373
378
396
407
420
424
410
371
342
332
334
335
338
339
344
361
343
342
341
344
344
350
439
368
347
346
352
359
372
384
401
412
413
401
359
335
334
337
342
348
351
358
376
365
360
361
364
368
347
505
399
370
375
379
383
394
409
423
434
439
422
383
357
350
347
353
358
366
374
371
359
366
364
366
337
573
409
375
376
380
381
389
395
409
434
433
425
396
357
341
340
346
345
346
347
359
360
350
352
352
348
316
579
376
358
357
360
367
370
385
400
418
423
417
386
350
338
336
342
346
353
370
360
347
354
359
362
316
590
402
367
371
376
383
394
404
425
436
443
431
392
365
357
355
357
362
368
370
384
369
365
370
365
364
414
435
390
371
375
378
386
397
410
434
438
444
426
391
359
356
357
354
359
361
365
372
362
362
364
360
356
425
404
381
369
365
374
376
384
403
413
429
430
405
371
346
339
342
346
351
361
371
357
353
354
358
358
373
443
380
363
367
375
376
390
413
425
438
435
413
374
348
343
347
351
363
369
368
362
360
358
360
321
583
390
362
362
367
373
379
391
407
428
434
430
395
361
347
346
350
354
355
369
362
351
353
361
356
319
589
389
360
356
369
366
379
390
409
426
436
425
388
353
337
340
341
347
351
366
364
350
353
354
357
314
588
388
359
360
364
374
376
393
406
422
433
423
385
356
344
346
351
354
361
368
376
363
360
365
365
357
437
421
381
368
376
375
385
392
407
427
441
438
414
374
359
352
354
356
356
356
362
374
362
361
363
365
362
361
467
393
366
369
370
378
383
398
414
428
429
408
365
344
340
338
348
349
357
361
366
354
351
355
356
329
540
386
359
358
360
368
378
388
404
423
429
427
396
358
343
343
346
354
359
352
362
371
370
361
365
366
368
328
590
400
371
370
373
378
382
392
410
426
438
436
402
367
349
349
353
357
360
358
360
362
366
377
371
365
362
365
365
344
506
394
368
370
377
381
390
400
418
431
429
424
383
355
344
345
347
352
355
357
359
366
369
372
365
365
364
373
326
592
398
364
370
371
376
382
399
417
426
437
428
400
366
346
343
350
353
360
359
368
377
373
364
365
363
369
321
600
403
371
370
384
382
392
405
423
437
440
430
394
360
348
349
355
357
362
360
367
377
363
355
355
358
359
379
448
389
368
374
379
380
391
402
419
426
428
408
370
350
343
348
354
360
359
368
382
370
367
364
365
363
331
519
389
357
360
363
368
376
386
407
419
414
403
367
339
332
331
337
339
340
346
349
359
357
347
352
354
356
329
523
389
349
354
363
366
381
399
418
432
437
419
377
347
334
336
342
347
355
361
376
369
366
367
369
367
342
501
395
362
363
371
376
387
398
419
434
436
420
383
359
347
355
356
360
361
364
373
378
368
366
371
371
344
531
416
374
368
374
376
379
390
409
427
441
431
409
373
354
350
354
353
355
361
368
372
359
366
364
362
326
557
396
364
372
368
376
374
388
396
412
421
419
391
352
340
336
338
346
349
353
367
362
357
354
352
356
326
522
394
363
367
376
384
391
399
412
424
423
410
375
348
346
349
355
366
369
381
378
365
367
375
366
325
573
404
363
367
372
383
385
401
419
428
439
431
399
362
347
345
350
352
358
372
365
359
361
364
363
311
560
399
361
359
373
370
382
395
411
427
434
421
378
348
337
339
342
352
361
374
355
353
352
354
344
467
399
366
357
358
367
371
381
392
414
427
423
399
359
342
337
340
347
354
368
351
351
350
353
343
428
410
372
359
364
372
375
384
399
412
424
428
405
368
351
350
346
352
360
363
345
353
356
355
350
442
394
373
359
366
372
376
384
399
416
427
426
403
368
342
343
348
353
367
362
350
347
351
357
325
561
390
359
360
368
371
380
388
407
422
424
425
385
356
344
345
357
363
377
364
359
359
364
365
329
545
403
370
369
374
378
386
402
421
431
436
419
377
357
350
350
353
360
373
365
358
359
362
365
320
591
405
367
372
374
376
384
398
416
428
436
428
392
364
353
355
358
356
368
363
353
351
358
357
326
580
393
372
366
368
372
378
391
407
424
427
423
385
353
343
344
345
353
362
362
349
349
353
353
335
499
379
365
359
366
368
381
388
406
420
426
423
392
362
349
349
355
362
368
378
367
363
364
371
369
358
481
404
378
378
385
385
395
410
427
440
442
421
386
357
350
353
358
361
375
374
363
366
361
368
331
561
389
372
371
368
380
379
388
407
418
425
420
388
349
338
338
340
349
351
365
357
346
351
353
355
337
471
379
354
361
363
370
381
397
410
424
421
403
361
340
335
337
346
355
365
356
351
349
355
351
342
471
385
357
362
371
373
384
401
419
431
432
406
365
346
341
345
349
351
356
364
362
354
358
358
358
320
551
394
360
364
372
379
384
400
416
428
434
416
378
352
342
339
343
345
356
356
366
358
359
352
356
344
473
382
366
365
363
371
376
391
405
416
426
422
395
356
340
337
342
349
362
369
362
355
354
358
357
315
543
387
360
359
365
370
379
395
414
422
428
414
375
353
346
351
350
356
361
373
371
362
363
370
369
329
546
404
370
375
376
387
393
410
427
437
442
427
386
357
351
349
354
356
369
372
361
356
358
362
356
400
411
375
367
364
377
382
395
407
425
438
431
408
371
348
341
344
351
357
372
360
355
356
357
364
332
522
395
364
373
376
384
398
415
428
441
439
419
376
357
347
350
358
364
372
372
357
362
367
366
317
598
403
361
366
368
378
384
402
417
429
431
414
372
351
338
341
352
350
355
363
365
350
354
353
358
400
431
380
358
362
373
379
392
403
420
423
434
399
362
347
336
355
367
375
358
326
342
325
341
295
596
361
326
323
337
339
352
393
399
409
410
391
364
344
336
347
354
358
370
359
356
342
351
355
331
564
396
369
375
376
388
410
408
434
451
452
433
394
360
362
353
366
374
350
369
376
392
391
379
379
382
382
332
630
420
379
382
386
391
405
413
433
446
449
451
400
369
356
360
360
358
362
366
360
368
373
371
363
362
363
362
314
584
398
356
361
357
365
372
385
402
416
412
411
371
333
332
329
334
337
344
339
349
356
346
351
352
353
318
567
397
362
357
363
368
376
388
406
418
427
419
386
355
339
338
345
346
349
354
370
367
354
357
364
365
324
531
396
358
366
368
372
381
391
416
428
431
413
382
354
346
341
352
358
355
361
367
373
361
367
358
363
333
555
401
376
374
370
375
381
397
410
424
431
425
395
361
345
342
347
351
357
362
370
376
361
365
366
363
323
591
413
368
370
374
378
388
399
418
429
437
425
392
361
349
350
352
354
359
363
375
365
362
360
364
364
350
480
398
367
370
372
376
387
403
419
433
436
415
377
346
346
346
348
352
351
353
360
368
371
355
364
358
366
317
578
405
363
363
371
370
381
396
413
426
431
414
379
350
343
341
347
348
349
348
356
368
361
356
358
360
361
339
497
393
362
367
367
374
382
399
419
429
432
415
377
352
343
346
346
352
353
355
359
368
369
362
367
365
362
353
469
389
365
369
374
375
384
396
415
424
430
409
372
346
341
341
346
351
350
352
359
366
366
359
362
363
367
320
559
405
363
368
368
376
383
398
412
425
431
412
375
349
340
341
344
349
353
353
358
359
363
373
361
363
360
368
325
573
405
363
368
371
376
381
392
410
420
427
422
387
356
345
344
343
346
351
352
355
360
371
361
358
361
361
362
405
429
390
372
374
378
383
392
408
424
435
435
412
371
364
345
344
355
351
351
358
359
378
366
348
360
361
346
466
403
376
366
366
371
381
392
408
428
432
430
402
360
348
341
347
351
361
363
368
367
362
362
364
366
335
525
399
363
368
373
380
394
407
426
437
434
410
367
343
344
339
354
354
360
364
373
370
361
363
363
367
352
496
398
369
373
377
384
391
406
427
433
440
414
377
352
348
349
351
356
356
366
370
376
361
361
363
363
332
566
406
369
367
370
379
380
397
412
425
434
426
385
354
341
339
345
354
352
360
373
358
351
356
359
330
543
386
365
359
367
370
375
390
406
421
429
422
388
353
339
341
344
348
357
361
371
359
358
358
361
343
503
400
370
363
366
371
377
389
406
421
428
427
394
361
346
345
348
352
356
354
363
369
360
354
360
362
356
425
413
375
363
366
373
375
388
403
416
426
423
398
358
339
333
338
343
349
355
368
353
349
353
357
344
465
396
373
362
369
375
385
392
413
425
434
428
403
363
352
349
351
354
357
361
365
378
367
366
369
365
365
394
440
386
367
373
374
382
388
406
421
430
429
407
365
349
346
345
350
352
353
358
365
373
361
363
362
368
342
523
403
371
368
370
376
383
394
406
429
432
428
401
360
349
342
348
347
350
353
355
364
369
358
358
358
364
340
520
404
373
370
372
376
380
394
408
426
432
430
401
361
350
347
350
349
357
362
375
373
359
362
365
366
321
590
413
371
369
373
379
388
395
413
429
435
423
388
360
349
350
351
356
357
368
368
377
362
365
364
369
337
538
404
372
366
371
373
383
396
407
423
428
427
394
357
340
336
340
348
350
359
367
360
352
355
361
358
341
491
393
363
364
372
380
382
398
420
424
424
407
369
349
342
346
350
353
362
367
374
359
360
363
363
326
580
404
368
364
368
377
383
396
411
425
434
422
386
358
349
346
352
350
358
359
364
377
370
365
364
367
368
327
542
404
364
368
367
375
384
396
416
426
426
414
372
350
338
346
352
347
358
355
358
369
359
357
354
356
357
366
443
379
361
359
370
370
384
399
414
423
420
402
362
345
337
344
346
353
361
374
363
355
354
362
364
318
580
406
368
371
374
380
387
403
420
432
442
422
382
362
352
349
356
352
358
369
373
362
357
361
366
340
514
396
371
366
366
373
374
389
407
424
427
425
388
355
343
344
343
350
352
360
370
362
355
360
359
363
325
547
402
365
367
373
378
386
401
418
429
434
414
376
352
347
350
354
354
356
363
377
376
365
371
375
370
334
550
405
370
369
371
376
385
398
414
428
432
408
375
349
340
342
339
351
356
364
349
346
350
350
324
495
376
361
353
355
366
373
383
396
413
418
414
380
347
339
333
338
343
355
362
354
347
348
354
358
356
449
381
359
362
368
375
385
400
422
430
427
408
362
337
340
342
346
356
370
359
352
352
356
355
352
462
385
355
360
364
371
380
393
413
419
420
395
356
342
338
341
348
363
364
354
356
360
363
329
556
405
372
366
374
380
388
396
414
429
432
431
398
363
355
350
356
364
372
363
354
356
359
362
323
551
393
357
360
366
366
378
396
407
421
420
400
363
337
336
335
347
360
368
348
349
353
358
341
484
387
371
361
368
375
388
396
415
428
440
430
399
368
357
353
358
364
379
372
362
360
362
366
324
593
403
368
367
370
378
385
398
413
426
431
417
383
351
341
346
346
353
369
356
349
355
355
358
313
583
399
359
361
365
374
381
392
411
423
428
412
375
347
345
344
346
358
358
372
361
355
357
362
362
342
505
398
370
373
371
373
382
399
417
431
428
408
372
346
344
344
344
344
357
369
351
351
350
357
347
437
385
371
357
366
362
365
384
396
411
420
415
383
351
339
330
336
338
351
357
355
340
343
350
348
305
580
391
360
360
367
373
383
397
414
428
431
420
380
354
351
350
354
360
370
376
364
365
365
363
357
440
411
380
364
368
374
378
391
405
421
430
428
404
369
354
353
350
357
360
369
366
353
354
354
360
312
577
394
361
360
365
373
385
396
408
426
428
411
377
352
340
338
349
350
359
375
361
351
359
361
353
392
432
384
366
367
376
383
400
408
426
437
432
407
371
356
349
357
360
368
375
382
366
365
370
368
353
497
407
383
375
377
383
386
398
415
427
433
428
396
363
352
347
352
355
356
360
375
366
362
363
367
366
355
481
398
369
373
381
382
393
407
422
431
431
409
373
356
352
351
356
360
359
367
372
356
358
357
363
323
558
397
366
363
369
371
379
385
402
410
421
409
380
342
334
332
338
339
342
342
351
349
360
360
347
355
353
356
314
541
387
357
358
365
372
381
396
411
421
421
409
376
350
343
351
348
353
356
362
372
361
358
358
360
362
352
473
393
365
364
371
377
383
401
419
427
426
401
364
345
344
346
349
352
356
364
372
361
358
358
361
346
481
407
378
371
367
376
378
389
406
420
429
424
394
353
343
339
337
341
342
349
354
355
346
342
349
352
317
550
375
356
353
361
363
374
391
404
417
421
415
386
354
339
341
345
353
362
373
373
361
363
363
370
336
577
403
375
372
379
378
389
398
414
430
437
424
392
362
348
347
353
354
360
373
366
357
360
360
363
316
584
404
363
370
372
381
389
398
423
435
439
423
382
355
345
345
345
349
352
359
372
360
356
355
353
339
448
390
372
359
364
367
374
384
402
417
428
423
394
361
348
344
351
355
359
376
365
361
361
368
368
351
504
405
376
378
385
388
400
414
428
440
441
415
377
356
355
357
361
365
377
374
363
363
367
368
326
581
409
370
371
375
379
384
396
413
427
431
425
386
361
350
355
351
353
358
372
363
356
362
361
367
318
569
399
365
366
372
372
378
388
407
414
423
406
367
341
335
334
339
337
348
346
358
348
347
352
344
346
381
405
375
352
360
361
367
377
391
415
419
427
398
361
346
344
341
340
347
358
369
352
355
357
361
346
475
389
373
363
366
376
382
394
408
428
432
429
395
365
351
349
356
361
362
365
370
375
372
363
366
366
368
341
524
404
371
378
376
377
391
404
415
429
429
415
375
346
339
340
340
341
352
361
359
344
348
349
351
307
571
388
359
356
362
370
379
390
404
420
423
414
377
352
340
344
349
355
362
370
372
361
362
362
366
319
593
405
367
373
374
381
385
398
417
428
433
416
380
354
343
345
351
353
365
372
362
356
355
358
358
351
469
385
359
365
368
377
383
402
422
432
433
407
370
351
340
340
339
345
351
359
362
350
355
348
355
312
578
388
359
356
364
366
380
386
407
417
422
412
370
344
336
338
342
345
357
370
357
352
357
360
362
336
518
398
366
372
377
384
395
406
423
434
433
411
370
352
345
344
348
353
363
368
377
364
362
364
367
346
501
407
372
367
368
364
373
383
399
415
430
424
387
357
342
338
341
340
344
357
363
352
351
353
357
341
466
390
372
363
368
372
374
386
404
425
425
424
387
355
342
343
350
357
367
379
371
361
361
367
366
422
428
393
373
377
386
390
400
419
433
439
439
403
367
353
350
353
355
365
378
369
364
365
365
368
321
588
403
368
367
374
381
389
399
418
429
438
417
382
355
351
352
352
356
359
370
361
352
354
352
357
311
571
386
355
353
359
364
369
386
405
410
419
401
363
335
327
332
337
338
347
358
352
347
353
353
357
321
524
392
359
362
369
376
383
401
417
429
429
409
369
350
346
351
347
355
360
374
359
359
360
359
359
385
434
384
364
368
372
379
387
402
422
436
437
409
370
350
349
351
352
356
366
375
360
358
361
361
343
506
384
374
365
368
371
379
389
407
421
430
423
387
352
339
339
341
350
353
361
368
355
353
356
360
346
461
391
374
358
363
372
374
388
406
421
429
425
392
359
347
344
352
350
354
361
370
371
358
358
364
367
329
573
402
371
372
377
378
385
396
415
428
434
424
391
360
352
347
352
353
358
361
373
368
362
357
363
366
317
590
398
364
365
366
376
377
392
410
424
421
410
365
342
336
335
341
342
354
361
363
350
353
355
355
318
571
386
361
360
367
370
383
395
409
425
427
419
382
349
343
343
349
353
354
359
363
376
362
358
362
366
358
433
413
382
369
371
375
382
393
408
425
430
428
402
367
350
346
350
354
360
357
365
371
374
365
365
364
370
337
552
400
372
372
375
379
386
397
414
426
433
422
393
364
351
350
353
355
357
363
365
374
369
361
365
366
369
322
578
407
367
369
371
379
385
397
414
428
428
417
382
355
347
346
352
353
353
352
361
361
371
358
359
360
363
340
504
389
367
362
364
372
375
386
408
420
421
420
386
354
344
337
342
340
348
350
354
357
366
360
355
358
359
357
370
455
385
360
368
372
376
387
404
417
429
429
403
366
347
344
348
349
354
356
358
360
365
380
367
365
370
373
350
509
409
381
373
375
380
385
397
414
428
434
430
399
366
354
350
351
350
355
357
362
368
376
359
360
364
368
329
555
401
369
368
371
377
383
394
410
422
429
430
388
357
346
342
344
348
351
348
350
357
365
352
351
351
355
326
528
376
358
353
358
363
370
373
395
413
414
410
380
348
333
328
332
339
344
346
348
367
350
347
350
351
349
400
407
374
355
362
365
374
388
405
421
434
430
403
367
350
350
352
355
362
365
374
387
377
374
372
376
370
429
437
397
379
384
389
395
408
421
438
444
444
418
377
360
355
357
361
361
365
372
375
381
367
368
369
371
330
569
407
372
368
375
378
388
398
415
428
436
422
390
357
344
338
347
345
347
353
364
359
351
349
352
351
307
539
383
350
355
357
361
372
390
407
417
418
401
368
342
337
346
342
351
349
352
362
361
353
352
360
356
315
581
398
368
368
368
375
385
401
418
430
433
422
380
353
350
352
353
358
369
374
374
364
361
363
364
320
606
407
365
369
373
380
386
402
419
434
433
420
379
352
345
345
347
352
354
361
369
363
355
359
359
365
314
581
404
361
364
368
373
382
397
415
424
430
414
374
351
344
343
347
353
355
356
363
373
364
361
363
367
363
369
456
385
359
365
369
376
385
398
411
426
423
400
362
337
336
337
341
343
352
352
363
350
350
350
351
332
517
383
365
358
359
365
380
386
403
419
426
418
388
353
339
339
347
349
354
362
373
365
361
362
367
365
386
451
394
375
376
381
388
399
415
429
440
438
411
370
354
352
350
357
359
363
370
377
361
364
366
365
348
494
401
375
368
370
375
381
394
408
425
433
427
395
361
348
342
345
349
349
355
362
371
355
356
359
360
332
535
400
368
366
369
375
382
393
409
424
432
425
391
360
351
346
349
353
352
353
354
364
369
357
362
359
360
320
568
394
364
361
366
372
380
390
405
416
421
415
383
353
341
334
340
340
345
351
362
352
346
347
352
350
314
547
389
358
359
365
373
385
400
416
430
431
413
378
355
347
353
356
360
363
370
383
381
369
373
379
379
327
611
416
379
377
384
388
398
405
426
437
440
428
391
361
352
352
355
359
362
362
365
372
372
363
361
364
367
319
591
409
366
368
370
374
380
391
408
421
426
416
383
350
344
343
344
351
355
357
359
362
374
367
358
361
359
362
315
576
395
357
358
361
368
374
391
406
419
420
411
376
344
337
337
334
338
350
348
348
353
353
370
356
353
360
361
357
428
403
374
365
367
373
380
395
407
424
429
431
407
370
353
346
353
353
364
369
377
381
365
368
367
372
332
594
401
373
372
381
384
395
405
425
439
446
433
394
360
353
350
352
356
363
370
382
367
364
364
365
368
355
496
398
364
370
375
380
391
411
421
433
429
407
369
347
342
345
347
351
355
360
358
370
366
365
362
368
364
333
539
399
363
370
371
380
384
401
416
430
428
414
374
348
346
343
346
349
353
353
358
364
368
360
358
359
359
352
430
411
376
363
362
374
376
388
407
415
425
428
396
357
342
332
337
342
350
351
354
371
360
354
354
360
354
371
455
389
370
368
377
382
398
408
429
438
433
409
368
350
349
351
355
363
368
382
368
365
362
365
366
350
516
400
370
373
382
383
394
407
426
431
437
411
370
351
346
351
352
354
356
364
373
369
361
361
363
362
317
589
408
362
366
367
372
376
394
409
424
428
417
376
359
346
344
348
345
353
350
356
359
372
356
356
358
359
344
457
394
369
356
363
363
371
383
398
414
420
418
391
357
338
336
341
345
351
358
369
357
353
349
351
356
311
589
394
360
364
363
376
383
396
414
426
431
411
380
353
341
347
346
355
359
362
377
362
360
362
364
350
467
407
377
365
368
376
383
396
410
426
435
431
403
363
354
349
351
355
356
362
369
381
363
364
369
365
356
446
412
379
365
368
371
380
391
407
420
434
432
400
363
348
343
343
346
351
348
356
364
361
352
354
355
352
314
587
391
361
358
364
372
380
397
416
427
429
417
379
355
346
349
354
356
359
366
372
372
360
359
364
367
319
601
409
371
375
377
382
390
406
423
432
439
426
387
359
351
349
351
350
353
354
360
368
365
358
362
362
362
322
582
406
367
368
374
382
391
404
422
430
437
421
382
351
347
342
347
348
348
356
352
371
356
352
357
358
352
328
508
381
357
359
359
365
378
394
411
417
420
400
361
333
329
331
332
342
345
351
363
360
353
354
359
359
318
580
396
363
370
367
379
387
403
421
434
435
418
378
357
349
350
356
358
364
370
379
367
366
369
371
345
522
404
377
369
372
376
383
398
412
434
435
431
393
365
355
354
359
357
361
359
362
375
376
361
370
359
365
323
568
411
368
361
365
377
379
382
402
422
428
416
383
348
341
336
335
335
339
341
352
343
331
340
344
353
308
584
405
363
371
375
381
387
395
409
424
427
415
377
358
345
350
356
355
363
373
366
358
360
363
364
317
609
421
371
374
373
379
389
411
426
432
446
426
384
354
344
345
346
349
361
370
362
357
356
354
354
336
473
380
356
356
363
372
379
399
413
418
422
393
356
338
329
331
336
350
363
360
352
351
353
362
315
602
401
362
362
369
376
384
397
419
435
432
416
381
351
347
345
343
352
365
369
353
356
357
361
323
589
402
368
368
372
377
385
401
415
430
435
422
384
353
342
348
350
362
371
367
356
353
358
362
324
582
404
368
368
368
378
386
399
417
428
436
427
391
361
353
354
363
368
381
368
366
367
368
369
347
516
397
370
368
374
377
389
403
422
431
433
404
368
344
343
343
349
356
365
355
351
351
354
350
406
406
374
354
362
366
373
384
400
415
424
417
388
354
339
341
348
352
368
366
355
357
357
360
329
551
390
365
363
367
372
378
391
411
424
428
425
384
351
344
345
350
358
365
369
361
359
361
365
351
438
418
383
368
373
377
386
400
413
423
440
435
396
368
352
351
354
356
356
361
365
359
356
362
359
336
539
388
363
356
363
364
368
384
398
411
415
407
375
346
330
333
342
347
348
357
345
343
347
347
345
453
391
373
362
362
369
375
387
407
420
424
419
385
354
344
343
346
358
368
364
352
352
355
358
313
586
396
363
365
371
378
388
403
423
432
440
420
388
361
356
360
348
364
362
374
373
360
363
365
359
334
545
388
366
362
361
371
376
385
401
410
418
412
371
341
334
328
333
347
350
357
346
350
351
353
316
577
393
365
365
372
375
385
399
416
429
433
424
385
360
355
356
357
367
379
378
366
369
371
374
327
594
416
378
379
385
390
398
411
427
438
445
422
382
360
358
358
362
363
363
373
374
359
366
368
367
319
592
407
360
370
370
373
387
393
405
418
424
413
368
351
340
343
347
350
354
360
370
358
357
359
363
343
492
400
371
363
366
370
381
388
404
425
426
419
386
354
342
342
346
349
349
356
357
371
362
358
361
361
367
355
491
396
368
366
374
380
390
402
424
430
434
416
370
358
355
353
354
358
356
356
359
365
368
359
360
361
363
314
574
404
358
367
371
371
382
397
414
426
421
405
375
344
346
340
349
352
355
355
357
372
357
360
365
362
336
542
400
370
367
372
374
381
393
410
428
434
426
386
359
348
346
352
355
361
360
360
368
379
371
369
370
368
360
421
438
389
369
372
377
379
391
407
422
437
430
404
368
351
348
356
355
357
358
361
364
365
378
370
363
365
369
362
387
453
391
373
376
381
380
393
404
421
434
432
408
369
350
342
339
349
352
352
346
352
357
373
356
356
354
357
350
418
419
373
358
362
369
377
387
400
417
425
424
399
364
348
344
346
353
357
360
368
375
373
363
365
369
368
339
535
401
370
371
375
381
395
406
422
433
436
413
378
351
346
349
354
354
358
363
375
368
361
362
366
369
329
555
404
365
368
370
375
383
401
419
429
430
410
375
351
342
344
347
351
354
355
369
380
346
358
358
360
363
357
385
441
388
374
362
372
375
394
402
412
424
426
407
361
339
344
339
347
349
344
345
351
368
356
353
353
358
355
354
465
390
363
365
364
373
388
398
416
426
427
403
363
352
341
347
349
356
361
369
374
365
361
361
368
360
412
435
389
375
375
376
383
396
408
428
434
434
404
365
350
348
353
355
358
357
365
374
370
360
367
365
366
326
567
407
374
379
377
386
399
406
424
435
435
414
377
353
346
341
346
351
351
360
368
369
355
358
360
352
312
583
394
360
362
362
362
380
389
409
426
427
411
372
348
338
341
343
349
353
360
364
371
357
356
358
361
314
580
395
362
361
366
376
383
397
410
428
462
404
383
357
346
348
353
358
353
366
361
376
369
360
367
368
368
411
438
384
366
372
371
380
391
407
424
435
429
407
362
347
343
347
350
354
352
350
356
359
371
366
360
363
365
365
360
479
393
362
367
372
374
384
402
417
429
429
412
375
348
348
350
349
355
358
358
365
369
381
376
374
374
369
375
337
560
398
366
370
371
375
387
400
414
428
428
411
380
354
339
342
346
344
348
352
357
371
354
358
355
356
347
427
397
368
357
361
359
368
380
392
407
412
410
382
346
332
329
335
342
345
356
362
358
352
353
352
358
312
592
395
360
366
370
376
385
396
416
427
428
417
373
348
346
341
346
349
354
356
364
369
359
356
361
366
328
569
397
370
365
372
373
381
392
408
418
429
423
388
352
341
341
341
348
350
355
363
368
367
361
362
365
371
321
593
408
369
372
373
376
385
399
410
425
426
415
378
348
338
341
348
342
347
346
355
360
359
355
352
358
354
319
562
383
366
355
360
368
378
389
407
421
425
417
381
353
342
338
343
349
351
353
362
370
371
363
365
366
368
330
593
404
376
374
377
386
389
402
420
434
436
431
398
364
355
353
356
353
360
364
369
376
383
368
371
375
370
347
545
402
374
374
377
381
389
401
413
429
429
430
394
360
347
344
347
349
355
358
357
362
368
381
370
367
370
369
360
417
429
385
363
366
372
378
386
402
419
425
429
395
363
343
341
343
343
349
348
352
352
364
361
352
350
359
357
314
587
389
358
362
364
369
380
395
408
423
424
417
378
348
344
342
349
350
358
362
369
374
375
365
366
370
373
322
608
404
365
377
381
381
389
403
420
433
435
427
387
358
353
346
352
354
361
361
363
366
378
370
367
366
371
371
344
548
409
376
372
377
386
388
402
416
429
431
413
377
350
346
343
340
347
345
346
362
353
348
349
352
350
314
584
386
356
354
360
367
371
389
404
416
418
403
373
340
332
332
341
346
350
357
367
368
355
357
363
364
322
604
404
372
372
376
383
391
408
422
439
442
433
396
364
360
354
357
361
365
374
378
382
368
367
370
371
333
589
409
371
371
372
380
388
399
416
431
438
433
395
367
350
349
350
354
352
365
373
365
354
355
361
364
317
581
392
357
368
357
369
376
389
414
421
420
404
364
345
330
330
334
338
346
348
365
355
347
351
351
352
321
535
386
363
361
369
371
383
399
412
428
425
407
371
346
338
344
348
353
361
369
366
363
361
363
367
324
598
400
372
370
374
379
391
408
410
421
428
424
375
345
338
343
342
343
347
353
364
360
352
351
355
356
316
579
390
359
362
362
372
379
392
405
423
430
421
389
351
344
350
341
347
351
353
365
362
355
355
356
357
321
571
386
361
357
366
366
377
391
411
420
421
413
383
351
337
332
341
349
349
355
373
352
351
353
357
352
390
431
377
365
367
369
380
390
410
427
430
434
412
366
355
344
354
354
365
377
372
365
364
366
370
342
543
394
374
369
377
377
384
400
416
432
437
429
391
358
350
347
352
355
356
365
378
367
359
361
363
366
366
471
393
370
375
376
378
395
410
427
437
433
410
372
355
349
353
351
352
358
357
374
366
358
362
361
367
320
577
396
369
366
368
375
389
401
414
426
431
413
374
358
337
344
341
348
358
368
369
348
351
356
356
328
570
386
366
362
365
372
384
393
416
427
434
423
385
360
347
348
350
352
359
367
376
372
364
366
369
376
326
604
410
372
376
377
382
391
407
420
433
436
423
385
360
358
355
360
364
367
372
377
381
359
368
364
366
369
386
445
394
354
364
372
375
381
402
417
418
417
393
352
338
326
329
334
335
347
342
354
336
329
332
338
338
332
439
361
341
339
350
359
373
388
406
414
415
393
357
336
338
344
342
346
359
367
369
355
359
362
362
326
590
403
370
368
374
383
392
405
416
435
441
439
399
365
359
357
362
371
373
368
376
380
374
370
366
361
365
320
591
402
381
362
379
428
357
368
401
421
423
416
361
334
331
336
331
335
351
359
394
335
331
352
346
313
535
389
368
356
341
375
371
378
409
431
439
435
400
362
359
356
364
364
378
390
385
365
374
376
374
330
599
425
383
384
389
395
404
415
434
439
445
429
383
360
356
356
357
362
368
381
374
361
368
369
362
317
593
406
365
365
365
367
376
386
403
417
417
403
365
336
325
329
330
331
338
343
352
335
339
338
342
323
486
373
352
342
346
353
364
375
388
405
414
407
380
347
338
336
341
351
359
370
366
356
359
363
368
320
601
404
371
373
379
385
395
407
426
436
439
426
388
360
357
356
358
365
370
374
384
371
368
370
375
367
430
428
385
371
369
373
377
385
401
414
428
423
392
356
339
333
334
340
341
351
360
348
349
346
348
340
327
483
376
353
354
358
368
379
395
412
432
437
409
368
341
332
336
354
368
385
390
380
374
374
371
362
437
424
392
380
385
391
399
410
417
432
441
440
415
382
366
364
365
361
369
375
376
366
367
368
366
346
493
399
371
368
370
371
380
389
407
422
429
422
388
361
344
337
343
345
344
350
368
354
349
355
353
353
320
500
384
354
358
364
370
383
393
409
419
420
400
361
342
336
340
344
349
359
371
357
352
351
354
355
359
453
385
363
366
371
377
387
402
419
427
428
407
370
356
353
353
360
371
382
373
364
365
365
366
327
582
402
368
368
373
376
383
400
409
428
435
419
383
351
349
341
345
352
355
367
364
354
350
355
356
308
569
385
357
359
362
368
384
389
407
413
414
404
362
338
334
337
340
353
363
365
353
354
357
358
334
519
389
371
361
364
370
381
393
405
422
424
417
386
356
347
348
350
359
364
375
364
358
359
364
362
357
478
393
367
372
373
384
393
406
425
437
434
412
373
353
355
351
353
355
361
375
372
364
362
364
366
344
547
391
374
369
371
376
382
392
407
418
421
411
384
353
340
341
344
351
359
368
356
354
355
356
360
354
478
392
364
370
377
385
392
413
423
430
428
400
366
349
347
352
352
364
372
365
354
362
359
365
321
592
405
373
370
375
380
389
395
417
427
434
417
385
358
348
350
350
358
361
375
368
361
365
364
366
319
572
399
363
368
373
376
387
399
416
425
421
403
362
343
338
337
343
351
360
365
350
346
356
356
326
561
388
363
361
371
376
383
398
414
428
433
423
387
361
348
347
351
364
372
377
363
362
364
364
359
430
417
385
374
378
381
388
394
414
430
432
429
400
369
361
356
359
352
364
368
370
358
353
357
357
335
512
391
366
362
365
366
374
382
401
410
418
408
379
343
334
332
337
345
350
361
354
349
350
350
354
320
522
391
357
362
361
369
377
392
410
421
421
403
363
345
346
345
358
363
368
357
356
354
353
348
400
406
370
358
362
368
374
383
401
414
418
419
389
355
344
339
340
347
358
368
345
342
348
354
349
438
393
376
362
369
373
385
396
413
426
431
429
400
367
358
352
356
367
381
373
367
359
364
370
323
592
405
373
378
380
386
396
411
421
432
435
418
383
355
351
355
358
362
376
374
364
364
368
366
338
552
398
374
370
376
379
384
393
410
424
428
423
387
360
349
351
348
357
364
368
357
357
357
361
354
407
410
379
360
366
375
374
389
403
419
420
424
391
352
343
344
342
354
358
357
348
342
342
346
333
465
376
362
352
357
364
376
386
399
415
422
416
386
355
341
347
351
359
370
370
357
361
362
366
334
563
395
374
373
373
379
388
401
415
428
435
423
391
362
353
353
358
365
369
378
364
359
364
365
363
358
467
392
365
368
372
379
386
399
417
423
424
400
365
350
349
351
354
359
365
374
354
356
356
355
346
409
401
373
357
362
366
373
379
398
413
419
418
385
353
336
335
341
339
352
358
359
345
350
350
353
328
509
382
363
357
364
368
380
389
407
418
423
417
385
356
343
347
353
356
362
374
362
359
360
363
361
341
508
394
365
370
375
381
392
404
423
430
428
404
368
351
345
347
354
361
369
374
361
359
360
364
356
417
423
384
366
368
374
380
391
406
422
427
423
393
363
345
344
348
351
354
359
366
367
356
355
358
360
329
545
399
367
365
368
374
379
392
411
424
431
423
388
359
350
344
351
346
355
368
367
358
359
360
365
338
515
387
372
367
368
376
383
392
409
425
425
418
386
357
341
339
340
354
353
371
358
351
351
354
356
316
561
398
364
366
376
383
392
408
422
430
430
406
366
349
346
345
354
364
376
370
361
358
360
364
312
604
404
364
363
369
375
385
397
417
425
426
414
373
350
344
350
352
358
361
373
367
359
360
361
365
319
578
406
367
369
375
379
386
399
418
429
430
411
374
353
348
352
356
359
364
368
382
372
367
369
371
369
356
497
403
373
374
378
381
391
404
421
432
434
412
367
349
344
345
348
344
349
352
369
360
356
357
357
359
312
563
394
359
361
360
370
376
389
405
415
418
396
363
339
331
333
339
345
346
354
364
361
351
355
355
360
315
591
401
367
369
372
382
388
401
422
428
432
414
376
354
350
349
354
355
360
364
376
372
367
367
368
367
323
583
406
372
369
374
380
387
397
415
431
431
416
380
354
344
343
346
349
351
357
364
370
354
355
360
365
355
438
408
377
365
370
377
379
391
408
417
428
424
391
365
345
345
348
349
351
353
350
363
364
353
355
362
360
327
554
390
364
359
368
371
375
392
406
419
422
414
374
346
338
333
337
344
347
353
365
356
349
347
352
353
324
523
389
362
361
371
376
386
404
416
431
428
405
370
351
348
346
355
360
366
374
370
363
361
365
369
323
597
403
368
369
372
384
391
408
423
430
433
413
375
353
348
350
353
356
363
374
371
359
360
363
368
321
605
408
368
367
374
378
389
400
420
430
435
419
382
355
348
353
351
355
357
362
370
369
360
361
360
362
338
522
404
372
367
368
377
381
391
408
420
427
422
390
358
345
345
349
351
354
357
359
360
370
366
361
366
367
369
333
543
405
371
373
376
382
390
404
421
432
435
422
385
361
355
356
359
359
361
364
367
370
386
370
368
371
369
367
392
448
394
373
376
378
383
394
406
425
429
430
404
370
354
343
345
353
355
360
360
372
369
357
351
359
361
320
584
390
364
361
368
377
379
396
410
425
426
417
379
352
344
347
349
356
360
363
370
370
358
357
360
363
334
532
399
369
362
367
370
376
387
405
422
426
419
385
355
344
342
346
348
351
356
361
365
355
358
359
358
352
418
414
379
367
372
372
378
389
402
419
429
426
398
358
342
345
345
347
351
355
360
369
368
354
361
364
362
321
586
393
364
365
368
374
383
392
412
423
424
417
380
352
344
342
342
351
354
362
367
363
356
356
358
361
317
588
398
366
366
372
376
384
402
415
428
431
418
382
360
347
349
352
356
357
359
366
376
366
360
362
365
366
340
510
397
368
373
375
380
392
407
421
434
435
413
376
355
350
349
350
351
353
359
365
358
354
358
358
357
339
490
388
357
363
367
369
384
394
411
421
418
395
361
338
333
336
337
346
353
364
362
347
350
354
360
315
583
393
362
363
366
376
383
397
413
427
432
424
385
359
353
350
354
358
364
371
381
366
366
367
367
371
355
500
401
372
376
377
387
394
408
426
435
435
410
373
353
352
353
360
360
361
362
366
377
374
363
365
368
370
322
593
409
373
371
375
379
387
399
416
426
437
419
387
359
350
352
356
357
358
362
371
368
360
360
364
362
327
566
392
366
362
368
369
379
393
411
420
427
414
381
350
338
338
344
344
349
359
367
355
353
352
353
357
325
534
391
359
367
368
375
386
401
419
429
432
407
371
352
348
350
357
357
359
367
378
371
365
366
365
368
321
598
407
370
374
374
384
389
402
421
428
430
419
381
354
346
347
352
357
359
365
372
369
364
362
364
367
337
532
397
371
364
368
374
376
389
401
420
420
420
384
350
341
337
341
345
349
354
367
353
352
349
352
353
337
480
383
356
360
366
365
378
397
414
420
423
397
363
345
341
345
350
353
360
373
363
359
360
361
368
320
580
403
367
371
377
383
395
406
421
434
433
411
373
354
351
350
357
360
359
369
377
367
364
367
369
371
343
523
402
368
374
381
386
396
406
425
435
434
408
372
354
346
345
346
348
352
356
363
366
350
349
356
356
313
583
389
357
361
370
374
378
391
412
421
425
412
370
352
337
339
341
347
352
355
365
356
349
352
354
342
439
400
371
360
362
370
375
387
405
417
426
422
399
358
343
343
344
347
354
363
365
354
352
359
362
352
447
408
378
365
370
377
384
395
415
425
436
431
398
363
351
354
352
359
360
368
379
367
362
365
365
365
328
541
402
364
369
374
380
387
401
421
425
430
404
369
351
347
348
354
356
364
375
371
363
364
367
366
321
586
401
365
364
370
377
385
396
418
425
429
415
383
351
344
343
345
353
357
367
361
354
356
358
363
332
523
393
364
370
378
386
395
409
425
433
430
407
370
354
349
351
360
366
381
376
361
366
369
370
326
607
411
376
380
383
388
400
413
428
437
441
420
382
358
353
354
358
366
375
370
358
360
364
365
328
566
399
370
368
367
375
382
396
411
423
429
413
379
353
342
343
349
350
360
368
370
359
359
363
362
351
467
395
370
365
363
371
378
390
410
420
428
427
398
362
352
347
351
354
355
362
375
363
356
360
360
364
321
570
394
361
363
369
377
383
398
416
424
425
404
371
347
343
343
346
349
357
371
359
355
358
356
362
311
594
399
362
365
370
377
386
398
414
422
426
408
369
351
343
345
351
352
359
367
369
356
359
361
366
323
580
406
372
368
373
384
384
398
417
422
428
416
380
354
347
347
351
352
358
373
374
356
360
360
362
333
550
386
368
366
367
378
383
389
411
423
427
419
382
350
339
339
346
349
359
369
359
352
349
356
358
317
556
392
357
357
369
374
385
400
416
426
424
400
367
346
345
343
347
352
360
368
361
352
356
357
357
312
581
399
361
363
365
376
383
396
415
427
433
414
373
354
345
346
350
351
355
361
374
367
359
363
364
363
320
578
392
362
366
369
372
389
399
414
421
425
403
370
349
339
340
345
351
355
367
356
353
357
355
359
322
555
401
364
369
371
377
390
405
422
432
427
401
368
352
342
351
349
357
361
365
377
362
362
366
369
357
426
424
386
367
369
378
384
397
413
431
439
434
403
368
352
357
354
354
365
369
378
366
363
366
363
366
357
472
391
369
368
375
383
395
404
426
425
428
392
367
341
345
346
353
348
376
367
363
360
362
360
364
335
516
394
361
366
372
374
389
404
420
426
426
406
365
351
349
349
353
354
367
369
371
358
355
361
363
324
570
395
363
365
367
374
378
393
416
429
434
415
378
355
344
345
344
347
351
365
367
357
361
356
361
337
489
392
370
367
363
374
377
391
406
419
429
415
381
348
338
338
340
349
357
367
365
352
358
358
362
318
578
398
364
365
369
376
383
397
409
424
430
414
378
352
345
345
348
355
363
373
363
359
359
360
366
318
576
400
362
365
368
374
382
394
411
423
426
409
371
349
347
345
347
347
356
358
367
356
354
354
353
354
384
426
381
362
367
367
378
386
408
418
425
426
395
359
344
340
343
349
357
367
370
352
360
353
357
335
515
392
367
362
366
373
381
394
410
422
427
419
384
356
346
343
348
351
354
360
373
365
358
358
361
365
326
553
403
364
367
372
377
383
397
417
421
424
404
373
348
340
345
347
346
359
366
357
354
355
355
358
318
553
392
359
359
368
377
386
399
417
425
426
408
370
351
343
351
357
358
365
379
371
363
365
367
367
324
577
407
368
374
376
384
395
405
424
433
430
410
373
356
347
350
353
357
362
371
367
361
363
367
365
320
588
408
368
371
375
379
385
398
417
433
436
419
374
354
348
351
348
350
354
366
362
351
355
354
358
317
576
390
358
358
363
366
382
396
414
422
423
404
368
338
329
331
335
344
354
365
356
350
345
350
350
308
586
394
363
362
368
375
385
399
414
426
431
409
371
348
341
345
346
353
359
369
368
358
360
361
365
328
562
399
371
368
372
379
384
398
415
428
435
425
390
360
351
350
354
356
358
359
371
368
359
362
366
364
320
581
396
367
365
366
376
380
399
415
426
424
413
378
350
342
341
345
354
363
374
361
355
357
360
363
326
547
398
366
370
375
381
392
403
420
430
428
407
367
349
345
346
351
356
365
375
357
358
358
360
362
363
463
387
365
369
373
378
387
404
421
426
425
395
360
347
342
346
349
352
359
371
367
359
361
365
361
318
583
400
369
368
374
381
390
403
423
429
432
411
380
355
349
348
351
351
356
367
369
352
358
360
359
333
533
376
367
361
362
370
376
390
405
419
420
413
376
350
341
340
347
354
361
373
365
360
360
364
364
321
578
402
365
369
377
384
387
398
418
429
427
405
367
348
344
346
349
356
357
369
357
354
354
358
356
366
453
387
359
366
367
375
386
403
414
425
420
391
358
345
340
343
344
353
369
355
352
356
356
357
334
498
392
360
363
369
375
384
400
414
423
420
396
361
343
341
346
350
357
367
357
355
361
364
362
364
462
388
366
368
372
376
389
404
415
426
418
389
360
346
343
351
353
362
366
355
354
357
359
351
416
401
378
362
369
374
381
391
406
419
421
415
385
352
342
343
347
358
366
373
354
358
356
360
334
527
393
369
368
370
377
383
400
416
428
431
418
384
352
350
346
350
354
361
376
364
356
360
363
364
314
591
402
365
368
373
379
391
403
420
429
430
417
375
356
353
353
355
359
361
365
378
369
363
366
368
368
337
532
405
371
374
378
381
393
407
422
431
431
404
372
355
349
352
354
354
357
360
373
361
357
359
364
360
358
466
395
366
366
369
379
386
403
418
423
420
397
360
342
341
345
346
351
353
358
371
357
357
358
359
360
380
435
385
365
369
375
378
390
400
417
423
418
397
358
345
344
344
348
352
351
358
366
367
355
362
357
361
327
559
393
367
365
367
371
383
391
410
419
423
412
375
350
341
341
345
347
354
352
356
358
363
372
360
358
361
366
329
555
399
373
368
372
377
381
394
412
428
427
421
390
360
346
346
352
355
357
356
360
361
366
378
362
363
367
368
360
424
417
386
371
374
377
384
391
407
422
428
426
396
359
350
343
345
348
353
355
358
363
374
360
358
357
362
348
459
398
378
368
371
376
383
391
409
423
428
425
394
361
347
346
345
354
351
359
355
363
371
371
363
366
367
371
325
573
404
370
371
376
383
392
406
418
432
432
415
382
356
345
347
350
350
352
359
372
365
352
357
355
361
320
574
396
362
363
369
378
385
401
417
422
424
405
368
346
341
340
346
350
352
357
359
372
361
357
357
359
354
405
423
383
365
369
376
379
390
405
422
430
430
412
372
353
349
348
353
352
356
360
367
368
360
361
361
364
321
567
387
365
362
366
371
383
394
413
423
425
415
378
347
343
338
345
347
355
356
368
358
354
354
355
358
352
474
388
361
368
372
380
391
406
423
432
428
400
366
349
344
350
350
352
361
370
363
356
353
357
358
313
579
393
361
361
368
373
380
394
408
419
423
414
374
350
342
337
346
346
348
349
362
357
354
350
355
360
312
568
393
353
357
359
365
373
387
401
413
419
405
368
345
335
332
338
348
348
360
355
343
347
349
352
306
585
384
359
357
362
371
380
395
410
420
424
408
370
347
339
341
345
360
366
368
355
356
356
360
349
444
402
375
367
367
376
383
393
414
425
431
426
393
361
350
346
351
352
354
359
365
374
368
361
364
365
367
326
572
405
370
370
378
383
389
406
421
432
434
419
385
357
356
352
356
359
357
362
376
371
360
360
360
361
326
570
391
370
369
372
378
386
395
414
429
429
420
382
357
342
345
349
350
357
361
371
362
356
358
360
363
336
524
396
369
369
375
383
397
412
427
436
432
410
373
353
347
350
354
361
370
376
362
361
363
363
362
348
494
394
364
369
374
381
394
406
420
428
426
403
369
350
346
347
350
354
359
363
373
362
359
362
363
367
336
522
393
366
367
371
377
381
397
414
424
425
405
366
348
344
342
348
349
347
354
369
356
353
354
355
352
313
559
391
356
359
359
365
373
390
404
418
416
400
362
335
328
337
332
341
342
357
349
344
348
352
353
310
589
399
362
368
371
377
387
403
421
432
429
414
376
353
350
354
353
359
366
374
364
363
363
363
369
320
593
406
368
370
377
384
392
407
420
431
431
417
377
350
345
348
350
355
356
363
378
367
364
366
365
369
333
557
406
376
376
381
388
392
401
420
424
425
409
372
348
344
344
347
351
354
363
365
355
354
354
358
316
584
390
358
360
367
369
380
397
406
417
420
405
367
344
336
339
343
354
371
367
357
354
357
362
326
565
391
368
368
374
381
385
399
416
427
430
418
383
354
348
346
354
360
368
368
355
356
361
357
335
544
396
372
365
372
380
383
395
412
425
431
417
383
354
346
346
349
357
365
381
356
356
356
362
357
391
438
388
365
370
373
382
390
401
416
425
421
393
361
346
343
348
350
354
368
364
351
356
357
361
315
582
402
363
366
365
371
380
395
411
421
424
406
373
342
341
342
351
361
363
352
351
353
358
344
476
391
374
365
374
380
386
395
408
420
428
419
384
353
344
342
353
363
367
353
348
350
350
348
371
420
375
355
359
366
373
382
400
413
414
412
384
349
339
337
346
356
367
352
347
349
354
353
375
438
384
360
366
375
378
394
407
420
426
420
392
363
348
349
360
369
370
358
354
357
359
353
439
402
380
365
371
373
381
390
410
419
427
416
384
354
347
349
357
365
374
361
360
359
365
364
323
559
402
369
368
373
383
390
404
424
433
427
407
369
352
346
346
352
363
369
353
351
351
358
349
371
434
376
359
365
369
379
388
405
416
424
422
394
355
344
343
342
353
363
367
358
354
353
357
346
471
392
374
364
372
378
386
393
415
426
426
416
383
356
346
348
354
361
367
373
361
361
360
364
348
459
400
379
367
373
379
385
399
414
426
432
422
390
359
347
348
352
353
357
365
370
366
357
361
362
346
485
395
375
367
369
375
379
394
407
422
427
417
382
357
349
344
344
353
359
366
372
362
356
358
360
332
519
387
369
360
367
367
380
393
409
418
422
411
377
347
337
337
342
342
351
367
363
352
352
351
356
311
581
387
357
355
364
370
379
393
404
415
420
403
368
346
345
346
348
361
363
376
366
360
358
362
362
384
445
388
368
371
376
381
395
409
424
435
431
398
366
354
351
354
359
359
364
374
374
362
364
367
366
324
569
406
365
364
369
374
381
398
411
424
428
401
367
346
343
339
340
344
349
348
366
353
344
349
355
352
396
410
376
360
362
369
374
384
406
415
423
415
388
355
342
337
344
350
358
365
372
358
356
358
358
319
585
388
363
362
370
373
384
400
416
425
427
410
378
354
344
343
348
355
361
373
360
358
356
362
352
415
419
381
363
368
371
374
390
405
423
426
422
389
358
346
347
348
349
351
357
365
367
357
356
361
360
317
580
401
364
368
370
377
381
399
416
424
429
411
376
347
339
336
342
345
352
356
359
347
353
352
354
321
555
383
358
358
366
369
378
389
401
419
419
408
372
344
339
333
335
347
355
364
352
348
351
351
348
426
409
377
365
371
376
383
398
413
425
431
425
390
364
348
347
354
358
371
376
360
360
362
364
341
516
392
374
370
373
379
386
399
413
430
431
422
385
359
345
347
350
351
356
360
371
371
356
363
364
366
328
554
403
368
372
376
379
386
402
417
429
429
407
371
352
352
352
354
360
357
364
372
365
362
360
361
362
329
527
400
363
366
367
377
382
398
416
426
421
398
361
341
336
339
342
345
351
358
362
345
347
349
352
318
561
384
359
359
364
369
381
395
414
427
429
417
380
355
348
347
350
357
364
372
372
360
361
362
364
325
585
401
363
365
367
377
384
396
416
426
429
416
379
356
345
349
348
353
357
358
364
371
377
366
366
366
367
334
567
405
375
372
374
379
384
398
417
426
429
417
383
353
347
345
347
352
356
355
360
363
366
377
366
365
365
366
341
528
400
376
373
375
378
385
394
411
426
431
423
394
363
349
353
352
351
355
356
364
378
364
357
362
367
365
358
467
394
366
370
375
380
387
403
420
427
422
395
361
340
335
339
346
346
349
352
359
365
352
349
356
357
330
535
388
369
362
364
373
378
390
409
418
425
415
381
353
345
340
344
350
353
359
362
374
362
360
363
364
361
383
453
392
368
374
378
384
392
407
425
431
427
400
366
352
355
348
358
362
360
365
372
377
364
365
365
372
332
577
402
375
372
376
380
387
402
417
428
429
423
382
352
346
342
346
352
354
356
363
372
359
360
362
361
358
425
410
388
366
368
374
381
390
405
420
423
420
391
357
345
339
344
349
351
352
355
364
366
356
354
362
364
323
575
401
367
367
369
374
382
395
410
422
425
413
378
354
347
351
351
353
359
360
361
372
369
363
359
366
368
323
582
398
371
368
371
376
380
399
412
428
424
414
379
352
342
339
348
349
353
353
357
370
366
359
355
359
362
319
583
388
368
365
373
378
387
399
414
426
425
416
382
357
344
342
348
350
354
357
363
367
376
362
362
364
364
341
528
397
376
368
373
380
384
396
411
421
430
422
388
356
346
344
347
349
350
351
353
355
363
366
358
355
357
361
319
572
398
367
365
366
372
381
394
409
418
425
413
378
349
339
339
343
348
351
349
357
364
368
352
353
352
360
336
498
375
365
361
364
376
380
392
404
419
419
416
387
354
344
343
347
353
359
370
379
368
364
363
367
365
379
459
396
372
377
380
390
401
415
431
442
438
407
372
358
351
353
359
364
370
380
367
358
364
364
363
364
475
392
365
369
375
379
392
405
422
431
426
396
362
346
343
343
348
350
358
363
372
359
357
355
357
348
436
406
375
363
365
371
377
385
404
422
430
426
395
359
352
341
350
351
353
360
364
369
356
360
357
363
338
511
395
374
365
370
375
384
394
411
422
430
420
383
354
342
341
347
350
356
359
370
349
348
355
356
355
358
458
381
360
366
369
378
391
400
419
427
422
396
361
346
341
342
349
353
361
374
358
353
357
357
360
331
516
393
362
363
371
376
385
403
420
428
426
402
369
348
345
349
351
355
357
362
367
367
359
359
360
363
331
558
401
369
367
370
377
381
394
410
425
434
421
387
359
348
345
352
352
354
354
355
357
363
359
377
359
364
360
364
350
487
394
375
367
372
373
383
397
411
425
425
424
399
365
353
343
346
348
354
355
364
376
359
357
361
363
358
408
419
384
370
372
376
383
395
413
425
430
425
395
358
348
342
346
350
356
366
372
363
356
353
359
362
325
542
396
365
366
374
376
389
402
421
428
429
405
369
347
344
343
349
350
353
361
373
361
360
359
365
363
366
464
391
361
368
372
377
390
404
422
428
427
400
364
348
345
346
350
352
355
359
369
371
358
363
363
365
323
582
401
366
366
369
370
379
389
410
425
423
411
375
347
341
339
346
344
348
354
365
352
353
347
351
352
335
490
379
357
362
366
372
383
400
411
422
417
391
358
341
335
341
344
350
361
372
359
353
355
357
359
354
479
391
366
364
373
382
390
403
421
429
429
401
362
347
342
344
347
358
368
366
354
354
356
356
336
509
389
369
362
366
369
379
386
405
418
425
417
384
356
348
347
352
356
352
361
369
361
359
357
358
361
314
562
398
361
364
369
377
380
395
414
425
426
407
368
346
343
340
346
351
357
367
353
351
354
354
350
404
415
374
357
362
367
376
388
405
421
426
419
389
352
343
339
344
352
360
373
362
356
356
359
364
315
593
406
367
368
375
379
387
400
415
427
433
412
375
348
343
345
346
350
354
369
361
354
356
361
360
317
571
399
363
365
371
377
383
398
415
426
429
409
378
357
351
355
353
358
364
367
377
363
366
363
367
361
410
425
391
367
373
373
388
394
412
424
433
428
398
363
343
341
346
355
358
366
370
359
355
358
356
350
425
409
377
363
372
375
384
397
413
429
429
423
390
364
348
344
353
353
366
372
369
359
357
357
360
328
560
391
367
362
369
373
381
390
409
422
426
412
373
346
339
338
340
347
349
355
362
365
356
356
360
361
333
537
396
368
365
370
381
385
394
415
432
433
425
387
356
349
348
349
352
356
362
372
366
363
360
361
364
320
582
392
366
361
367
374
380
393
409
421
421
409
374
347
337
337
346
346
357
365
371
356
356
361
362
345
500
396
373
364
371
377
386
398
415
424
433
422
387
360
349
348
351
355
359
360
368
377
364
365
366
366
363
410
437
391
371
374
380
384
396
409
423
429
428
400
362
350
347
347
349
350
356
362
369
373
359
363
366
361
329
548
398
370
371
371
379
382
394
409
424
426
416
383
354
343
342
344
347
352
356
371
354
353
357
354
356
358
454
389
363
367
371
379
389
404
417
424
422
392
359
342
340
337
348
349
360
370
362
350
353
355
357
315
575
394
363
364
368
375
385
399
415
424
422
407
366
345
340
342
346
350
357
368
363
355
354
359
360
320
572
396
368
367
370
373
385
394
413
426
428
415
381
354
347
345
349
351
353
353
359
362
372
359
361
361
365
358
411
424
385
365
368
374
378
385
400
416
422
423
400
360
348
346
345
350
351
357
358
368
363
362
359
361
365
320
578
400
366
372
371
380
391
405
416
428
429
415
375
354
344
347
350
349
353
365
374
360
358
358
362
356
404
423
382
368
372
374
380
391
407
422
430
424
393
361
349
346
353
354
356
365
378
364
357
357
362
362
327
558
398
363
367
370
375
383
402
417
426
425
404
368
349
342
344
348
351
354
357
365
366
359
359
361
365
322
573
398
371
373
371
379
383
396
417
425
428
417
381
352
345
349
347
352
352
360
374
359
355
361
358
360
334
502
388
362
363
371
380
391
404
419
423
423
399
356
339
333
332
339
345
354
367
356
346
350
353
356
342
503
391
366
370
376
385
395
410
426
432
431
402
369
351
348
349
354
361
370
373
360
360
359
364
358
440
410
383
369
373
380
385
399
414
427
436
427
395
360
348
346
348
353
354
359
364
374
363
360
359
361
360
361
472
387
364
366
370
376
386
397
413
423
421
396
362
345
341
342
346
350
351
356
367
366
353
355
357
358
321
553
385
368
361
364
374
376
393
407
417
421
417
375
350
340
339
340
347
347
352
368
358
353
356
356
361
317
584
390
363
366
369
377
388
399
416
424
427
409
375
350
343
345
345
351
357
359
367
369
358
358
360
362
357
413
417
383
369
371
376
383
391
409
424
429
427
400
364
349
346
347
348
356
357
362
376
370
363
362
365
367
329
569
395
372
372
377
381
387
400
419
425
436
423
387
362
350
349
355
351
353
359
367
373
368
362
367
365
366
323
576
395
368
370
374
378
387
402
420
428
429
412
373
352
344
342
346
350
352
358
372
359
356
356
361
363
329
540
396
364
369
377
381
390
406
421
433
431
409
369
353
347
350
351
359
357
362
372
368
359
361
365
365
322
578
396
369
367
372
378
386
397
414
424
431
418
381
358
348
350
355
357
360
360
364
377
369
357
363
366
364
327
570
395
369
369
368
375
386
399
413
425
430
412
376
354
341
340
344
342
348
357
372
355
351
349
355
354
320
553
386
356
363
365
375
387
400
417
422
429
404
367
348
344
344
345
352
358
366
370
358
360
360
360
352
458
397
376
364
369
376
382
388
409
421
427
426
387
356
341
336
341
343
349
354
360
365
353
351
353
356
346
448
395
375
364
363
368
375
385
402
417
426
427
393
361
345
346
347
353
356
349
356
358
367
363
357
358
358
361
319
565
393
363
371
373
377
385
397
415
424
421
413
372
348
341
341
344
352
353
359
368
354
349
352
353
351
373
437
381
360
365
374
379
389
407
422
430
427
400
361
345
345
347
352
356
362
372
373
358
362
363
365
341
521
387
370
368
374
381
386
398
414
429
434
427
392
360
349
350
353
354
358
362
368
376
362
362
364
367
359
420
417
387
372
377
381
391
397
409
430
434
428
399
367
353
350
352
355
356
368
364
382
369
367
366
364
371
339
523
399
368
368
375
377
390
402
421
424
427
403
365
345
338
343
344
351
354
361
371
351
355
353
359
358
347
479
387
363
367
368
376
386
401
413
423
420
395
359
341
338
342
344
349
351
356
362
371
357
359
361
362
357
382
441
386
367
369
374
381
391
406
419
428
424
402
367
347
345
346
352
353
355
353
360
368
368
358
360
363
365
340
525
392
374
368
374
377
382
393
409
422
431
427
394
365
351
349
352
357
356
354
360
369
370
356
357
362
366
336
526
382
369
364
368
376
380
395
408
417
423
417
386
351
341
339
343
346
351
355
370
361
351
354
353
360
314
589
395
368
369
374
382
392
405
420
429
432
416
379
357
350
347
352
358
362
365
368
375
360
362
365
364
359
424
417
382
365
371
372
379
388
403
420
426
422
394
362
346
344
343
348
351
350
354
356
368
369
358
359
362
364
323
581
401
370
369
368
378
382
396
414
423
428
419
388
354
346
346
348
353
353
357
368
372
367
363
364
366
368
326
542
395
369
367
371
378
388
401
414
429
422
406
367
348
337
339
344
350
355
365
362
352
351
352
355
344
489
383
372
364
368
379
384
396
413
427
429
421
387
354
346
343
347
350
358
366
375
358
358
360
361
360
371
455
388
364
366
371
380
390
403
420
426
425
398
361
343
342
342
346
350
359
367
365
357
353
357
359
338
498
392
373
364
368
373
383
394
408
424
428
423
392
362
350
348
351
353
355
359
368
375
360
355
355
359
359
353
470
386
366
369
372
380
386
401
414
424
421
394
362
346
337
343
342
350
354
368
350
350
351
351
358
327
530
391
362
367
372
381
391
403
419
429
426
402
370
350
346
349
355
357
363
375
366
357
361
361
365
324
580
400
373
374
375
384
390
401
420
428
432
418
384
357
353
351
353
359
360
369
376
362
359
361
363
367
343
508
395
367
370
373
379
389
404
421
427
430
408
372
346
346
348
345
352
356
361
368
355
355
356
359
357
376
432
384
366
365
368
377
391
401
419
424
422
394
362
344
338
340
345
351
356
371
360
349
355
357
360
315
591
395
364
365
373
377
387
400
416
426
427
409
374
350
341
345
345
353
359
374
359
352
353
356
356
320
562
388
361
361
365
371
381
393
411
420
426
414
377
352
343
344
348
351
351
355
360
369
357
354
357
357
356
385
437
385
366
369
375
377
388
404
416
424
420
399
364
342
343
346
345
348
359
369
365
354
353
358
361
329
560
382
367
362
370
375
382
394
411
421
426
411
377
350
340
337
344
347
350
352
359
371
355
355
357
359
354
412
415
379
364
368
369
378
393
407
422
428
424
397
363
344
343
347
349
352
358
368
369
358
358
358
364
353
465
398
380
366
371
375
383
394
408
423
430
422
392
361
350
343
348
347
350
352
357
366
367
356
355
358
362
337
517
387
368
366
372
375
383
395
411
429
434
426
394
359
345
344
345
347
352
350
353
364
369
355
351
359
360
339
502
380
368
365
369
371
380
391
407
418
421
416
383
356
346
339
343
349
350
358
365
374
359
360
361
362
351
415
404
378
362
369
375
378
391
408
423
429
425
395
360
347
343
345
348
352
360
369
365
357
355
360
361
339
505
384
370
363
367
372
378
392
407
422
429
421
385
357
343
340
344
349
352
356
367
367
356
355
356
358
339
493
384
369
363
365
368
379
387
404
419
431
424
393
359
346
346
342
345
350
355
351
358
366
360
357
356
357
356
320
562
385
359
363
368
371
383
396
415
423
425
406
377
350
337
347
346
353
357
364
369
353
354
355
358
355
388
428
383
366
370
377
388
397
413
426
434
428
400
364
350
344
349
351
361
367
378
364
360
360
359
364
333
528
396
366
371
374
380
392
404
422
428
431
408
366
350
344
344
348
350
358
364
366
355
357
356
361
352
447
397
374
364
369
375
386
392
408
423
430
426
397
364
350
345
348
352
354
356
360
364
372
374
363
367
369
368
348
505
396
377
371
372
378
382
393
410
420
430
429
400
367
351
349
350
352
355
356
358
365
375
359
359
360
363
357
415
404
381
363
365
370
374
385
402
415
423
417
394
358
339
339
340
345
345
353
361
363
350
355
359
360
341
511
388
376
369
374
382
389
399
415
431
434
426
393
364
351
347
349
354
355
361
375
367
358
359
360
363
324
567
394
369
367
369
374
382
394
412
425
429
415
382
350
342
343
348
350
350
352
357
364
367
356
355
360
361
344
480
396
373
364
368
372
377
385
403
417
425
425
393
362
347
344
342
348
348
350
352
356
370
359
354
358
362
360
337
496
385
362
367
372
376
383
404
412
422
423
405
370
346
336
343
345
351
351
357
369
363
352
353
358
358
313
588
393
363
363
373
376
387
400
419
424
427
413
377
353
345
344
348
354
356
364
375
361
356
360
358
360
343
494
391
365
367
371
381
388
407
420
432
429
404
369
352
349
349
351
354
358
358
363
377
367
361
364
366
368
327
564
401
367
369
373
381
387
406
419
427
433
417
383
355
349
342
346
344
351
351
359
365
357
353
354
358
354
352
472
381
360
365
371
377
388
399
425
424
430
407
367
352
342
338
345
349
354
359
370
367
357
357
359
364
318
598
399
368
370
376
382
390
402
416
431
430
417
383
353
345
343
349
353
355
363
370
366
356
356
358
361
323
574
393
367
367
370
376
383
396
413
422
425
415
380
350
341
339
341
346
348
353
369
360
356
355
360
361
322
576
398
368
372
373
375
387
399
415
428
431
423
385
356
351
344
348
350
353
357
366
372
361
359
358
365
350
455
393
378
368
366
377
384
395
408
422
428
425
397
358
345
341
346
348
352
357
363
374
361
358
361
362
356
441
410
381
368
373
379
388
399
416
429
431
429
401
364
350
348
349
353
360
369
376
366
362
364
367
367
325
571
403
369
369
372
378
387
408
418
429
430
411
373
350
345
345
348
353
355
359
376
361
356
358
359
364
316
575
398
365
362
369
372
380
393
412
418
423
408
368
346
336
336
339
344
350
361
363
349
349
347
352
329
508
374
361
359
361
369
378
390
411
422
427
419
386
356
343
341
344
350
358
370
362
352
354
356
358
318
583
391
361
360
365
371
382
396
413
423
422
413
379
351
340
343
345
348
360
368
360
348
353
355
356
331
519
391
363
366
369
382
390
407
417
428
424
404
367
346
343
347
347
356
362
367
355
353
356
359
336
514
391
372
364
369
374
385
394
412
425
428
421
388
360
348
345
350
353
364
368
356
352
354
358
348
457
394
374
363
369
377
382
388
410
420
426
419
389
354
341
340
339
348
357
362
345
347
348
349
348
346
443
381
353
362
368
379
386
402
409
421
415
390
364
343
338
342
346
354
371
359
353
352
355
362
325
549
397
369
370
377
385
391
410
419
429
430
407
372
351
348
355
359
370
378
365
361
361
363
365
323
580
399
368
368
375
386
392
405
422
429
431
413
377
355
349
352
356
356
362
376
373
363
366
369
368
334
566
398
375
372
378
384
389
402
417
426
429
421
386
358
348
346
352
353
351
355
364
368
353
355
358
359
348
451
395
377
366
371
375
377
391
405
419
424
422
393
360
344
339
343
344
345
347
351
354
357
365
366
358
357
359
360
320
576
390
364
364
364
375
381
389
405
419
422
414
381
350
342
336
337
343
345
350
354
362
359
351
353
356
360
321
570
395
361
366
371
378
386
399
416
425
425
409
371
347
342
342
345
352
353
354
359
365
361
354
355
362
359
321
565
397
363
363
371
373
382
396
415
423
426
411
373
349
341
342
350
352
353
363
368
374
361
359
361
362
343
493
388
372
367
370
377
378
393
407
422
430
423
390
354
344
340
340
350
346
353
353
367
356
352
358
357
356
390
419
381
358
366
370
377
390
406
419
429
428
402
365
349
344
348
352
359
367
378
375
363
362
367
370
325
593
404
369
373
377
383
394
409
423
434
435
417
378
355
347
346
348
352
355
360
371
369
359
358
362
365
321
582
400
369
365
369
376
384
395
416
427
433
420
384
356
349
348
348
354
354
356
360
363
376
367
362
364
364
366
363
473
395
369
371
377
383
392
403
422
429
429
408
370
347
338
344
344
343
349
355
364
366
354
361
354
359
313
573
391
367
365
372
374
387
395
415
423
423
408
374
346
338
339
339
343
351
363
369
352
352
355
356
332
524
382
371
364
369
373
381
396
410
427
429
422
387
358
346
349
351
354
359
370
375
362
361
364
363
357
444
408
382
370
372
379
385
395
414
428
430
429
397
364
350
347
351
352
356
357
364
372
375
363
362
366
366
331
553
401
372
368
374
380
384
397
415
426
429
423
388
356
342
344
342
346
349
349
362
365
350
351
354
355
321
543
