387
351
335
323
327
335
345
358
377
394
395
383
344
317
308
305
304
309
316
323
336
326
312
310
315
317
314
295
468
319
321
316
322
325
331
347
363
377
377
361
322
295
285
282
283
286
290
294
299
306
299
294
294
299
298
300
288
439
323
301
305
311
315
326
348
365
370
365
332
298
287
280
279
282
290
293
295
299
305
303
296
297
300
299
297
323
371
323
303
309
315
325
340
357
375
385
374
341
308
298
294
294
298
304
315
329
326
311
312
316
314
319
305
442
339
340
334
338
348
358
372
392
410
414
400
359
333
326
321
324
329
334
338
343
356
344
338
341
343
347
349
318
556
369
350
353
360
369
377
396
411
418
415
381
345
328
323
322
324
330
340
351
339
330
332
333
333
334
295
557
347
335
337
343
348
358
374
391
402
403
376
341
322
317
315
315
320
330
345
333
324
327
330
331
334
316
490
356
337
342
349
357
370
389
408
417
411
379
346
327
324
320
326
336
344
334
322
324
328
321
326
292
535
324
330
327
333
338
349
362
382
389
386
367
330
305
300
302
304
317
332
327
315
317
317
324
324
291
548
338
338
336
340
346
358
372
388
399
401
378
338
316
312
311
315
329
340
325
321
320
323
322
326
290
563
345
333
334
340
347
358
376
395
405
405
377
341
322
319
317
323
335
347
350
338
340
346
348
346
349
330
527
375
355
356
364
372
384
400
422
423
417
389
349
339
329
329
332
342
355
353
333
330
335
337
338
321
483
343
349
343
347
353
365
377
397
407
412
395
354
332
323
321
325
336
351
335
326
327
328
328
332
331
331
466
357
333
337
345
356
368
385
402
409
400
363
334
317
314
316
326
335
342
326
319
320
318
319
319
317
362
378
328
311
313
317
326
334
352
364
371
361
324
292
280
281
285
288
290
298
305
300
291
297
299
299
301
302
290
474
336
316
323
332
344
361
379
397
407
405
373
342
328
327
323
323
322
333
326
335
320
318
320
319
318
322
300
494
343
320
320
328
338
348
367
385
392
390
360
328
315
308
310
316
323
333
341
329
330
333
335
338
338
351
449
370
344
350
357
364
380
401
418
428
421
385
352
340
337
338
343
358
372
368
355
356
357
361
360
358
352
506
378
357
359
363
368
379
392
405
410
397
358
321
303
297
297
297
307
314
320
308
309
308
313
315
310
292
479
348
317
326
330
337
356
367
396
397
398
360
331
303
309
310
325
342
351
337
332
334
338
341
344
318
535
357
346
346
352
354
372
386
397
405
399
369
331
317
318
314
328
342
333
322
320
320
327
327
317
447
335
338
336
337
343
356
367
387
400
405
388
351
321
312
309
313
323
333
319
310
311
310
316
316
285
527
317
318
317
318
328
336
352
370
382
383
364
329
305
303
299
308
320
328
314
310
312
315
320
325
295
524
333
335
332
335
343
354
370
390
404
409
396
359
336
331
330
339
352
362
349
345
350
355
355
360
359
440
394
380
371
377
391
398
412
437
451
456
446
408
379
363
362
365
374
385
370
360
359
360
360
358
320
587
355
358
354
361
366
378
394
410
422
420
397
359
337
329
329
341
355
348
333
330
331
332
332
331
292
566
335
328
327
332
338
351
365
381
386
387
365
328
305
299
297
307
317
324
308
299
301
301
305
307
295
412
320
315
310
316
322
332
345
363
379
385
374
344
314
303
300
303
312
322
323
311
306
309
308
309
313
281
518
307
315
314
323
331
343
358
377
388
392
372
339
312
303
300
304
314
329
314
303
308
308
310
312
313
368
358
332
320
326
335
346
361
379
395
400
392
360
330
318
312
317
324
343
332
320
320
323
325
326
329
299
548
328
335
336
342
348
359
377
392
405
406
388
349
326
317
317
324
332
345
336
324
323
327
326
327
329
293
563
345
333
335
342
349
360
375
389
400
399
375
341
318
314
312
314
325
331
334
321
319
319
323
325
323
294
537
325
326
330
329
338
346
363
379
392
399
376
344
317
306
305
308
318
327
332
313
313
314
315
315
320
313
387
348
333
322
327
335
345
358
377
391
396
391
358
328
314
313
313
320
330
344
335
321
321
323
325
327
330
294
562
348
334
338
343
352
362
378
396
404
402
378
342
322
315
318
322
325
333
342
337
328
328
332
333
335
337
298
564
348
336
338
341
351
360
376
395
403
407
383
348
325
322
321
320
325
328
334
340
336
327
334
333
336
340
307
545
340
348
349
355
362
377
398
413
433
436
423
388
364
361
359
363
367
384
399
390
381
382
384
387
391
387
444
432
406
393
398
404
409
422
437
449
452
439
399
362
348
340
335
340
345
349
330
316
315
313
312
313
309
323
408
323
303
306
307
317
330
347
363
369
363
329
295
281
278
280
284
293
308
296
289
291
295
300
300
302
283
475
318
305
305
312
323
334
349
364
373
373
344
312
292
289
289
291
301
314
316
296
298
298
298
305
308
271
543
314
318
318
331
337
350
366
385
399
399
380
346
320
315
313
322
333
347
330
323
323
327
329
333
325
419
363
348
338
342
349
359
373
392
403
411
398
364
334
319
318
319
329
337
343
327
323
323
327
326
329
318
432
349
342
333
338
344
353
367
384
398
405
401
363
334
321
314
316
327
333
338
320
315
317
316
315
318
319
303
478
334
318
321
325
335
349
361
378
389
388
359
329
306
301
304
307
315
330
328
314
313
319
321
323
324
288
561
340
332
336
341
351
364
379
397
407
407
387
351
329
323
325
329
339
352
344
335
335
338
338
339
341
327
478
352
350
347
349
357
363
377
393
405
414
403
370
339
328
327
329
333
340
353
341
332
332
333
336
339
341
304
578
355
349
352
355
364
374
387
401
414
414
395
356
331
324
321
323
325
334
347
337
326
327
332
333
330
334
294
566
338
336
336
340
345
356
370
388
397
399
380
345
324
315
313
316
328
337
343
326
323
325
326
327
331
329
362
407
352
337
341
345
353
368
381
397
403
398
367
332
317
314
318
325
337
341
326
321
321
322
323
326
327
308
493
348
327
333
336
343
353
369
385
395
395
366
332
311
308
310
310
315
323
334
322
313
315
316
317
316
317
309
458
339
322
324
332
335
350
363
381
388
386
358
326
308
300
303
304
310
319
329
317
306
308
312
314
317
317
285
535
317
323
323
329
337
351
361
382
395
399
383
345
320
308
308
310
321
331
341
326
319
319
324
327
326
329
294
571
346
337
336
341
348
359
373
388
402
403
382
343
321
315
316
319
328
343
329
316
319
317
317
318
319
289
530
318
327
325
333
335
345
359
376
390
392
377
341
316
303
305
306
317
330
321
310
311
314
314
315
320
296
531
324
337
338
344
354
364
382
403
419
426
416
380
356
348
348
355
366
381
369
360
362
363
367
370
374
347
582
377
380
380
385
392
400
412
429
442
445
431
393
366
358
353
355
360
368
379
362
356
356
355
354
356
353
373
443
372
353
358
364
374
385
396
413
422
416
388
348
331
325
326
327
334
346
343
327
326
328
327
324
328
293
536
316
328
322
328
332
342
357
374
385
387
374
335
310
297
298
308
319
329
315
308
309
310
314
316
313
397
351
340
328
335
339
351
364
384
397
402
394
360
325
317
310
320
328
338
323
316
315
316
318
321
322
287
554
335
322
325
331
336
348
362
379
389
391
369
331
313
306
309
318
332
324
311
309
312
313
314
315
293
482
309
324
315
321
328
340
351
368
384
386
377
339
312
301
299
304
317
321
306
299
305
304
308
308
310
297
484
331
314
319
326
336
349
365
383
393
395
371
335
321
314
323
333
343
328
319
322
326
327
331
333
303
557
353
337
342
344
353
363
379
395
403
404
380
345
326
318
322
332
344
329
323
322
323
325
325
329
299
539
335
334
334
336
343
354
361
379
390
391
377
345
316
308
306
315
328
332
313
310
313
313
314
320
320
300
502
338
325
332
337
343
360
372
389
401
400
377
343
322
319
325
336
350
335
328
327
332
335
337
343
307
587
354
349
348
355
364
372
387
405
413
414
398
361
336
327
327
334
345
351
337
329
331
334
334
335
337
311
535
355
340
343
350
353
367
382
399
408
407
380
348
326
322
325
332
348
339
326
328
325
328
332
332
322
447
343
344
335
341
346
355
364
382
395
400
395
361
334
321
315
322
330
343
323
318
313
320
317
320
320
298
512
337
326
327
332
342
354
371
386
392
392
365
329
311
306
308
321
336
328
316
313
315
316
315
319
286
549
323
328
330
337
345
355
374
388
404
407
388
359
330
326
325
340
351
335
327
327
330
332
332
334
303
554
333
336
337
341
347
356
368
385
396
399
383
345
318
312
307
314
322
335
320
310
313
313
313
316
318
306
466
336
319
326
327
336
348
363
380
387
383
357
320
305
300
302
306
320
327
312
299
305
306
308
310
314
275
550
320
316
319
327
335
347
358
376
382
386
363
328
308
301
300
308
325
321
308
303
306
307
311
312
313
358
381
335
321
327
335
347
362
380
397
405
398
370
337
329
325
330
345
359
355
343
345
348
351
355
357
337
544
364
372
367
374
378
391
404
419
433
437
422
391
359
348
346
351
361
374
361
355
357
359
361
361
364
332
583
368
368
368
369
377
384
400
420
422
426
408
365
335
315
311
310
320
333
315
307
304
305
302
304
306
292
451
324
300
304
306
315
319
333
347
352
343
315
280
262
257
269
282
277
273
274
281
282
288
296
302
378
344
316
298
312
325
343
360
381
399
409
400
370
335
323
320
324
331
340
327
324
331
336
334
339
320
501
344
347
341
343
349
354
367
384
393
398
390
359
329
321
316
328
344
333
317
312
315
318
321
326
319
421
325
337
329
337
343
353
365
381
389
392
386
369
335
325
333
339
352
336
326
326
322
328
330
335
301
584
345
340
344
349
359
365
379
391
398
396
381
345
325
319
322
335
331
314
308
306
304
307
307
307
333
393
329
310
313
318
325
336
350
363
368
366
341
308
293
293
304
322
319
304
304
306
311
315
316
301
440
335
329
321
327
334
341
356
373
383
387
383
350
318
312
314
320
329
337
323
321
323
332
328
329
306
508
343
341
340
343
350
361
374
389
401
405
396
364
332
321
323
332
352
334
325
329
328
328
326
329
297
501
309
322
323
325
337
345
360
376
387
389
381
350
325
312
317
330
334
320
314
317
319
323
326
326
324
464
349
329
334
338
347
356
372
384
389
386
364
333
317
321
332
340
324
321
323
325
327
331
332
300
554
357
338
342
344
352
366
382
391
396
395
376
344
323
321
329
342
328
321
322
325
327
332
334
291
582
354
335
338
343
352
362
375
385
390
390
376
342
321
318
324
336
321
312
313
311
312
312
315
272
527
335
315
318
324
333
342
358
370
374
377
365
335
317
316
326
338
337
325
327
330
336
341
346
306
558
374
359
363
372
380
391
405
415
419
420
406
375
356
354
359
375
362
347
351
346
346
345
339
311
534
315
332
332
335
341
352
363
375
380
379
370
342
318
314
322
335
323
319
320
323
328
336
334
353
435
364
346
351
356
365
376
391
398
405
405
382
348
337
345
355
338
332
331
333
333
335
338
296
583
369
344
347
351
358
370
383
392
396
396
377
343
323
327
337
323
312
312
314
316
319
319
304
437
342
318
323
328
336
347
361
372
377
377
354
321
308
314
326
311
301
301
305
304
309
310
328
376
334
315
319
329
332
344
360
368
373
371
351
317
307
312
324
306
298
301
304
309
312
299
437
327
334
330
333
340
350
363
378
387
391
387
359
330
328
337
335
319
318
320
323
324
329
291
541
353
336
338
345
353
363
375
385
391
396
381
353
338
343
358
345
340
342
347
352
358
335
547
364
372
382
390
397
410
425
437
447
453
441
406
385
387
399
381
363
360
354
346
347
334
381
347
339
320
329
330
335
340
348
346
342
336
312
285
282
292
281
268
271
268
272
278
274
337
302
300
285
290
298
308
322
336
346
351
344
318
295
294
308
304
295
295
297
302
307
297
407
315
319
308
313
323
331
342
362
369
370
361
326
303
300
308
309
299
292
297
298
300
297
391
308
316
309
316
327
337
354
370
378
382
369
342
324
318
334
337
323
321
324
326
333
325
393
371
352
344
351
361
373
390
412
427
432
423
397
370
366
372
393
383
378
379
384
383
384
367
539
392
400
397
398
411
423
434
452
453
461
444
400
371
357
352
352
365
345
333
331
328
322
310
401
325
323
314
315
320
329
339
354
363
362
349
313
284
274
278
285
299
287
281
281
282
284
281
335
345
302
291
295
301
312
328
346
361
368
360
326
299
289
289
302
316
312
302
303
306
307
312
278
553
323
325
328
338
345
358
373
389
399
400
379
341
319
316
314
319
324
336
325
317
319
320
323
297
512
316
331
321
325
331
340
354
368
378
383
372
337
311
303
303
305
314
326
319
311
315
316
321
320
355
373
345
333
339
345
355
366
381
394
401
398
371
340
328
325
333
344
350
332
327
331
336
338
306
537
337
346
347
352
359
370
383
397
407
406
393
357
332
327
326
332
345
341
324
323
325
324
323
303
461
342
327
333
341
351
365
384
397
407
410
393
363
351
352
361
375
385
367
358
364
363
364
349
506
345
373
373
383
388
401
411
422
438
443
434
389
364
346
348
360
369
352
339
337
332
328
323
349
362
337
323
321
327
331
337
351
360
354
350
311
287
277
282
293
310
304
283
287
291
290
294
272
468
311
303
304
307
320
331
353
365
371
365
340
306
287
286
294
309
307
292
291
297
294
302
274
486
295
312
312
315
325
333
351
367
373
378
362
331
308
298
300
302
313
323
320
306
310
314
316
320
292
503
327
327
327
332
337
350
366
382
394
396
387
347
326
315
310
313
326
331
335
325
313
316
321
318
323
283
531
338
323
330
334
344
355
373
390
392
389
370
334
319
313
307
319
331
340
328
321
323
323
328
318
385
359
338
321
324
328
336
353
368
381
387
381
344
319
309
308
310
322
342
330
322
322
323
329
329
294
586
351
341
338
346
353
363
378
397
408
407
385
342
324
312
311
316
328
337
331
319
320
322
321
322
291
547
327
330
328
335
340
348
363
375
387
389
372
337
309
303
301
303
310
317
331
322
317
319
321
325
329
292
574
351
339
343
346
354
366
386
403
416
418
399
359
336
328
327
329
332
339
346
345
338
335
338
338
340
313
535
340
346
344
350
356
365
377
396
407
413
399
363
335
322
319
322
324
326
335
337
340
328
329
331
331
332
291
562
336
332
329
335
341
352
364
381
392
396
385
351
327
320
321
324
329
339
346
362
352
353
365
357
368
360
455
388
378
369
370
382
386
400
417
432
438
429
403
373
356
352
356
365
372
382
364
356
358
361
364
359
425
397
381
366
369
376
385
396
412
421
419
412
379
345
329
324
322
330
340
329
317
314
312
312
313
278
514
320
313
309
312
319
326
338
353
363
365
355
321
295
285
288
291
302
314
302
294
296
297
297
301
257
531
322
302
305
309
318
331
344
358
367
368
350
318
296
291
293
299
310
322
308
301
305
307
310
312
272
543
336
317
320
326
334
345
360
372
380
382
368
334
313
308
312
316
326
338
322
314
317
319
320
323
306
475
353
332
336
343
352
366
377
390
395
396
377
344
326
323
324
334
342
343
326
327
331
330
335
329
378
379
356
345
344
350
357
368
381
392
391
389
363
336
323
321
327
334
348
332
323
324
327
328
330
293
548
358
350
347
361
357
366
374
386
392
388
364
328
306
296
298
310
322
308
295
295
295
299
301
266
513
311
309
309
316
328
340
355
368
377
375
366
334
314
308
318
326
335
323
318
320
324
326
329
290
554
355
335
337
344
352
364
378
395
402
403
385
353
334
327
335
345
352
339
333
336
337
341
349
304
554
356
341
345
345
349
362
375
394
399
394
369
340
321
313
318
334
336
323
322
317
324
321
325
301
500
349
333
337
340
346
356
368
380
384
380
355
329
314
315
327
339
328
320
322
324
331
332
302
554
339
344
341
348
355
372
386
407
420
422
405
374
349
341
346
360
349
337
336
336
338
339
339
337
460
358
345
345
350
361
371
383
390
395
391
362
330
317
317
328
336
323
311
311
306
309
316
311
354
358
327
318
326
331
344
360
374
385
394
390
361
333
323
329
349
345
331
327
330
333
336
338
316
516
358
345
344
351
360
375
389
408
408
402
375
340
325
327
327
350
333
322
320
321
323
326
284
568
331
327
328
333
338
348
364
380
388
388
365
330
312
314
317
331
324
313
314
315
325
326
329
360
384
336
331
334
336
348
356
363
378
384
380
341
311
303
298
312
323
311
305
297
302
308
313
277
537
317
310
315
327
325
339
352
370
376
372
349
314
302
301
314
325
318
315
310
301
302
316
305
522
295
315
317
322
335
342
362
368
383
386
376
334
319
313
326
342
336
327
319
323
322
328
330
334
490
365
345
353
360
372
389
410
426
434
429
396
362
348
345
351
356
365
354
345
346
345
350
352
314
573
352
346
346
348
348
357
371
386
399
391
372
334
310
297
296
300
311
305
297
296
300
305
311
294
448
315
318
307
312
320
330
346
365
376
381
368
335
311
298
300
311
318
322
311
308
311
314
317
319
302
504
344
326
330
338
345
358
375
391
398
397
369
332
316
314
316
325
336
328
323
325
326
328
332
325
427
373
348
339
343
351
362
375
394
410
417
411
377
349
337
337
339
348
352
359
348
343
346
344
345
341
380
415
355
336
336
339
344
355
369
379
382
375
343
308
293
290
290
293
299
308
306
295
297
298
301
303
260
544
321
308
308
313
323
333
346
364
373
376
363
330
307
302
303
309
317
325
338
322
317
320
326
329
335
300
561
355
346
345
349
358
367
383
401
414
420
408
374
347
336
334
338
342
347
359
349
341
344
347
347
352
323
527
378
357
360
367
376
391
407
420
425
423
397
362
347
339
340
342
349
355
363
343
336
336
336
337
335
339
430
355
335
337
341
349
362
375
389
395
390
361
329
314
309
311
314
323
336
323
313
315
317
318
321
307
464
338
335
328
334
338
348
362
376
391
397
385
351
325
314
315
315
323
329
344
330
324
326
328
331
335
296
567
354
342
345
350
359
370
386
403
413
417
395
361
341
335
336
340
351
361
366
353
352
352
355
358
360
367
462
384
368
372
380
388
403
419
433
440
439
412
375
362
361
358
363
372
376
385
369
368
370
371
374
355
505
365
368
363
364
362
376
380
402
407
407
389
356
329
316
310
316
324
337
330
313
306
303
300
302
275
501
298
304
302
307
312
324
342
358
368
369
352
319
294
290
289
298
309
324
308
305
309
312
314
318
316
453
342
328
330
339
349
364
383
400
405
400
365
336
321
318
317
330
343
328
318
319
318
319
322
276
563
341
322
324
327
336
346
360
375
381
378
351
312
293
287
290
301
302
293
295
292
297
304
308
268
566
336
319
325
334
346
360
381
402
414
418
396
362
342
341
342
355
369
357
352
352
355
356
359
314
619
382
360
366
370
379
388
406
420
432
432
407
371
354
347
352
362
371
358
355
358
359
362
364
345
518
387
367
371
376
383
394
409
426
435
428
400
367
354
350
357
366
361
343
339
335
332
329
332
316
454
334
318
322
329
330
344
354
368
374
367
336
307
292
289
298
312
304
291
289
288
293
296
273
488
313
311
309
316
327
336
352
368
383
386
372
335
313
306
313
324
327
314
311
312
315
314
317
293
492
326
328
324
330
338
349
362
381
394
395
376
342
317
309
311
322
327
313
307
310
308
306
316
308
379
341
324
314
318
325
336
354
368
383
386
376
344
321
310
310
321
339
331
322
321
321
324
326
298
542
337
341
340
346
351
360
376
392
402
402
383
348
325
319
325
333
344
330
325
325
328
330
330
314
473
341
344
336
343
348
355
369
386
399
401
390
355
328
319
319
327
342
331
320
316
317
322
321
324
330
417
336
322
328
332
340
351
370
384
390
381
349
325
311
308
315
327
339
324
316
317
322
326
327
293
539
345
328
334
338
346
361
376
392
399
398
369
335
319
315
321
330
343
329
322
324
326
327
331
322
427
355
345
334
340
345
355
370
385
399
403
391
358
330
323
321
329
335
344
330
325
322
326
330
326
289
562
336
330
332
337
347
357
373
389
395
395
369
332
315
308
310
322
336
336
321
316
319
322
324
329
326
455
352
337
342
346
357
369
388
402
410
402
371
339
327
324
325
336
347
356
342
337
339
339
342
345
311
566
365
350
352
358
367
377
396
413
421
421
392
358
342
338
338
339
350
362
359
344
351
346
346
351
348
325
522
358
343
347
350
355
366
386
398
402
396
367
330
314
307
304
310
321
336
321
314
315
319
319
322
288
542
325
328
327
334
341
353
370
388
398
401
377
341
320
313
310
314
321
330
340
323
316
317
321
321
322
310
447
339
335
327
332
338
349
359
380
393
399
386
349
320
309
307
310
315
324
335
324
319
321
321
324
325
325
324
447
346
330
334
339
348
359
376
393
404
397
366
334
316
315
315
320
323
331
338
337
327
327
328
333
329
329
337
432
344
335
338
344
355
364
384
398
403
404
370
338
323
318
319
324
329
339
347
335
329
330
331
334
332
295
572
350
337
339
342
352
363
382
395
407
407
381
340
321
316
314
314
322
330
341
334
324
324
326
329
328
326
340
426
347
329
333
339
345
356
371
388
397
390
360
327
311
308
312
314
323
331
342
336
327
332
336
336
338
312
543
344
348
350
356
363
371
386
408
422
424
413
372
347
337
339
337
344
352
363
361
349
345
350
351
351
352
320
560
369
353
357
361
369
378
396
413
419
416
387
352
334
329
328
333
338
345
357
343
335
335
337
337
341
336
385
397
355
344
347
356
362
374
394
404
414
404
370
338
326
320
319
322
333
340
342
328
322
323
324
324
325
293
539
326
327
324
334
340
345
365
381
393
396
379
338
316
305
304
309
312
318
330
328
316
314
313
317
319
322
299
511
346
327
334
340
348
364
387
403
416
412
384
352
339
335
334
341
354
362
370
357
351
355
356
358
360
323
594
359
365
362
368
375
383
396
413
426
427
406
366
342
332
327
329
333
340
352
336
326
327
329
331
331
327
358
409
347
332
335
338
348
362
377
392
401
394
360
327
313
305
307
310
314
331
319
308
306
308
311
311
312
284
519
329
315
321
324
332
344
357
378
388
385
360
326
306
301
304
312
323
336
320
317
316
320
323
324
290
559
335
334
335
342
352
361
378
394
404
407
387
346
324
318
314
323
332
340
328
321
322
325
327
329
325
399
371
345
337
340
347
356
369
386
402
409
406
373
342
327
326
332
339
353
337
331
329
331
334
335
336
313
508
353
335
337
343
349
363
376
393
397
395
366
333
316
308
310
321
338
326
315
315
315
320
321
322
302
494
341
326
329
335
345
354
372
388
394
389
362
329
310
305
310
319
335
319
310
311
312
313
317
319
282
559
331
323
326
331
338
350
365
381
395
396
378
342
322
312
317
326
341
330
321
322
324
328
331
333
319
495
350
337
340
346
351
367
381
400
404
399
372
339
325
322
329
341
355
339
331
333
335
337
342
343
412
379
364
355
361
369
381
396
416
427
432
425
391
360
347
345
355
370
364
349
347
346
348
350
350
318
565
365
348
353
357
367
377
393
411
417
416
390
353
338
333
336
346
360
345
336
338
337
339
339
320
487
338
344
335
337
342
351
359
375
384
386
372
335
306
291
294
296
311
299
289
285
287
287
284
287
248
509
298
288
291
296
305
316
330
346
357
356
333
301
284
280
288
299
310
295
291
293
297
301
305
285
475
310
318
314
323
332
340
356
372
384
390
376
342
317
312
319
329
339
324
321
324
327
329
332
317
487
336
343
340
345
351
361
375
393
405
412
400
366
339
329
337
348
351
338
332
337
338
341
345
345
383
399
359
357
358
366
372
385
400
418
419
410
384
352
338
342
353
362
347
338
340
341
340
342
329
462
344
353
346
350
355
367
381
397
408
408
395
365
339
329
333
348
350
332
330
330
332
332
335
331
399
373
352
342
346
351
362
374
392
404
411
403
368
341
328
330
339
349
334
327
329
327
331
331
333
313
519
352
336
338
342
352
362
376
391
396
392
364
331
313
311
319
335
322
312
313
312
314
317
320
284
553
324
322
323
327
335
344
358
376
385
389
372
336
310
308
316
329
332
317
311
312
315
316
318
310
397
332
329
321
326
335
340
355
372
380
387
371
344
315
305
305
317
328
310
307
309
311
312
318
317
366
373
342
330
337
345
357
372
388
403
409
400
371
340
329
334
344
354
339
335
335
335
335
340
336
393
395
355
341
347
352
360
374
391
403
410
399
364
338
325
325
334
345
332
320
321
323
324
326
327
291
570
343
334
333
339
344
356
370
384
397
397
375
342
322
314
323
329
338
324
322
319
320
320
322
317
434
339
342
337
344
357
368
384
404
416
420
409
377
353
343
341
353
369
368
358
355
355
361
365
371
347
546
393
376
384
387
396
403
423
436
441
434
398
360
342
339
343
354
341
327
322
325
326
325
323
321
444
337
320
323
328
336
346
364
377
384
383
345
313
299
296
302
319
305
299
296
295
299
301
299
264
531
292
298
297
302
313
328
342
358
366
364
339
301
278
273
278
288
302
288
286
288
291
295
299
266
533
316
313
312
317
327
338
355
376
387
391
371
335
313
309
315
322
332
321
317
322
323
329
334
335
341
468
365
350
355
363
374
388
404
419
428
424
392
361
346
345
351
356
369
360
354
355
358
359
365
320
619
384
370
372
378
386
396
412
425
434
433
414
378
356
349
349
353
364
352
338
335
334
332
332
328
339
404
337
316
317
321
326
335
345
352
356
349
319
285
269
262
271
277
282
267
260
261
262
263
267
236
455
294
276
283
288
297
309
330
342
357
358
328
291
285
279
285
295
293
285
284
282
286
289
289
264
494
287
305
304
315
328
338
352
366
380
379
370
339
313
309
316
335
328
317
316
325
324
331
333
303
559
368
351
360
370
385
397
417
434
445
444
421
392
382
380
389
408
402
390
391
394
393
397
399
361
601
413
392
394
394
399
406
418
426
430
423
389
349
329
320
324
335
324
306
300
296
293
290
289
246
514
300
286
285
290
294
300
314
329
332
332
308
274
254
248
255
259
274
258
250
258
257
259
262
252
402
275
283
277
286
298
308
325
347
360
362
353
317
295
288
288
302
325
319
311
314
318
327
333
334
364
408
361
349
353
366
372
389
404
417
423
413
378
346
336
334
342
347
360
338
332
334
332
336
340
303
560
359
345
348
350
356
372
390
404
417
418
390
351
335
330
338
345
364
340
337
337
341
342
345
315
580
359
354
349
361
366
378
391
410
420
418
398
355
339
329
330
343
354
340
330
331
326
325
324
301
513
328
328
325
331
333
344
361
378
389
388
373
335
307
299
297
312
317
330
317
314
313
317
320
322
281
583
336
325
328
332
341
354
370
388
398
399
377
338
318
313
310
316
320
328
321
314
318
321
320
324
282
556
339
320
324
328
335
349
365
382
392
394
367
332
313
311
315
324
335
344
330
328
331
338
342
348
323
537
380
361
367
375
388
403
420
437
449
450
428
397
382
381
384
393
408
398
387
385
386
386
387
354
590
391
383
377
379
384
391
403
416
424
423
404
364
334
322
318
326
332
328
311
309
308
306
306
300
371
343
317
303
306
313
324
339
352
366
371
363
334
304
294
294
308
321
324
312
310
314
317
320
322
307
463
349
331
336
342
351
363
377
395
401
398
368
336
322
319
327
338
336
319
314
322
315
317
321
285
533
330
325
324
333
337
350
365
381
387
386
361
331
312
306
315
328
335
317
312
313
317
320
323
296
484
340
322
330
335
345
356
373
386
392
386
359
328
310
306
317
330
329
316
311
313
316
317
320
287
533
329
329
328
334
342
351
366
381
392
394
377
343
320
312
310
321
336
326
317
317
320
320
325
316
407
355
341
336
340
342
351
360
381
395
403
383
337
314
303
300
303
311
323
320
312
317
326
328
337
304
578
361
366
373
382
393
408
424
444
454
458
438
400
381
376
381
390
404
392
382
382
384
385
385
349
618
387
385
376
378
382
389
404
415
423
424
401
362
337
330
329
335
343
343
331
327
328
328
326
323
365
395
347
337
346
351
361
366
379
393
398
387
351
318
308
308
311
318
323
307
301
301
302
302
304
269
468
325
298
302
309
318
327
341
353
357
357
330
297
280
280
290
299
304
292
291
296
294
298
300
271
487
327
304
309
318
324
339
358
374
385
383
355
320
307
302
311
318
331
320
315
318
320
329
332
294
559
367
343
350
355
366
380
399
414
424
428
399
364
345
342
348
355
365
355
347
348
347
351
353
308
596
375
350
353
356
363
370
380
394
404
400
377
338
311
304
304
311
322
306
296
294
294
294
296
250
516
325
295
299
305
315
327
343
358
363
362
338
303
282
280
289
300
300
284
279
279
284
287
289
253
481
318
297
300
309
316
329
349
362
369
368
347
315
296
297
306
318
318
302
302
307
315
314
310
393
328
344
337
342
345
360
373
382
397
391
387
360
335
325
329
341
352
342
329
330
334
336
340
304
571
349
349
349
357
368
376
394
410
412
413
390
359
336
328
337
351
348
336
334
333
333
337
331
433
357
352
345
347
357
363
373
390
402
405
393
356
328
319
321
330
342
328
323
324
326
327
333
323
421
354
350
340
344
352
361
375
390
402
406
395
360
332
322
318
330
335
340
330
326
333
334
335
339
312
559
341
359
360
367
379
391
412
429
444
446
426
395
376
371
373
385
397
392
383
384
384
390
386
352
621
393
389
391
397
399
410
424
440
444
439
413
373
354
341
341
349
363
350
335
330
330
327
327
309
459
325
324
317
322
324
333
347
360
370
373
355
317
292
283
281
287
294
307
291
284
285
286
288
290
289
324
357
309
295
302
308
315
331
350
368
371
364
337
304
291
290
292
294
301
316
303
300
299
304
303
306
272
526
311
308
313
317
326
339
357
375
383
384
359
326
309
305
305
307
319
329
333
322
323
323
328
336
328
459
358
355
354
361
370
384
400
422
437
441
430
394
365
353
351
352
358
361
371
353
340
340
338
336
330
359
395
335
315
315
314
317
325
337
349
349
339
302
266
249
243
240
248
255
262
245
241
239
239
242
246
207
491
265
257
260
266
277
288
304
324
337
341
319
284
265
262
267
274
285
300
298
291
293
298
304
311
283
514
322
326
324
338
332
345
368
385
403
407
395
366
340
335
332
333
359
364
376
363
360
364
366
373
367
459
398
398
382
387
392
408
414
421
428
431
420
384
357
344
340
340
347
355
344
333
334
335
345
342
307
543
341
352
353
355
359
377
388
405
414
415
403
369
342
337
342
357
365
348
353
347
352
356
371
341
573
367
376
372
368
380
394
398
413
414
407
393
359
334
324
324
321
344
326
313
312
315
317
324
277
543
338
329
328
337
344
357
375
393
403
410
396
364
343
344
351
357
367
347
350
354
360
363
355
439
379
379
365
373
378
376
397
399
408
404
389
352
324
312
317
331
327
304
296
292
293
298
302
290
397
313
290
291
304
316
331
346
351
369
381
332
310
291
302
317
309
304
305
309
313
319
312
405
352
351
319
324
337
349
368
379
400
400
387
358
329
320
324
341
325
312
316
317
315
320
316
367
351
335
322
328
337
348
357
369
381
387
379
349
321
312
321
329
316
308
307
307
310
315
276
538
322
320
318
327
333
344
358
374
379
380
360
332
306
307
315
327
316
310
313
314
316
320
290
537
328
330
327
335
342
356
371
390
400
405
388
355
336
333
341
360
350
342
344
349
352
357
324
600
370
376
381
387
397
410
428
445
454
452
432
397
379
376
383
386
394
379
374
373
375
374
367
444
387
380
369
372
377
387
397
409
418
421
408
375
343
331
332
338
346
327
317
316
318
320
321
304
466
337
325
328
335
340
352
366
376
379
378
345
314
300
300
306
318
308
292
293
292
295
299
264
511
307
301
303
309
319
333
348
365
371
367
346
315
300
294
301
315
317
301
299
302
306
309
284
490
315
321
320
327
334
343
359
376
386
389
372
340
318
310
315
326
333
317
310
310
312
315
308
391
346
328
313
317
325
331
343
362
375
379
364
332
303
293
298
308
316
301
297
298
298
303
298
372
332
322
313
319
328
338
352
369
382
387
378
346
321
312
317
325
337
327
318
322
325
331
333
298
561
348
341
349
353
366
374
392
403
411
409
388
357
340
333
340
353
352
337
328
330
330
332
323
439
333
345
335
335
343
349
358
377
390
392
379
343
314
303
312
321
329
316
306
311
315
319
313
388
348
341
330
337
343
351
362
382
397
400
388
347
320
312
314
326
341
328
320
318
325
328
334
304
548
362
348
350
360
370
390
407
429
437
424
396
350
341
342
341
355
350
344
335
334
341
331
304
527
340
342
338
346
357
362
386
395
403
401
384
350
328
319
330
346
345
335
328
321
335
331
313
464
340
332
326
335
342
353
367
383
397
403
389
352
322
316
318
325
340
325
318
319
326
330
333
325
469
358
341
344
348
357
371
384
397
404
399
367
335
320
319
327
336
332
318
312
315
314
312
283
512
321
320
320
326
331
345
360
375
383
386
373
338
314
307
314
324
333
319
311
312
314
319
321
308
444
346
328
334
338
349
361
375
387
393
389
365
335
320
318
326
341
334
320
316
318
322
324
280
555
338
329
331
336
343
356
369
385
390
394
377
344
323
316
328
341
338
319
317
318
323
325
316
390
338
337
331
337
343
348
363
379
386
389
379
350
327
316
317
328
341
323
317
319
318
321
321
343
386
340
326
328
336
347
362
377
388
390
383
352
323
311
313
322
335
325
315
316
321
322
324
291
540
337
335
334
339
348
359
373
388
400
401
379
346
324
319
324
330
344
330
322
323
327
330
332
302
517
356
338
343
352
359
370
388
406
415
412
382
350
341
334
343
358
358
347
345
346
351
356
362
362
476
389
378
382
393
400
415
429
443
452
446
414
386
374
372
381
397
392
377
373
373
372
373
344
558
369
369
361
362
366
369
384
390
397
395
366
328
305
292
287
295
302
302
286
282
284
286
287
282
346
334
295
283
285
291
304
316
334
348
355
348
307
288
271
276
275
286
294
294
281
283
288
285
292
293
328
367
314
305
309
319
326
340
363
374
380
369
334
310
300
296
300
311
320
330
319
314
319
327
331
332
370
408
362
350
358
366
378
397
417
435
442
431
392
371
379
330
346
357
385
404
375
341
371
407
361
367
377
364
599
418
379
373
381
378
411
397
405
419
440
388
383
276
311
314
282
301
299
308
294
285
294
287
284
287
302
363
316
285
293
303
306
320
315
350
361
359
321
290
305
273
260
288
260
315
295
298
282
304
303
321
300
362
390
319
316
323
337
342
353
385
390
407
417
342
325
305
303
310
315
322
338
360
311
311
316
309
321
306
488
336
335
330
336
347
353
370
387
393
403
386
343
318
310
309
318
321
339
336
327
321
328
322
321
327
322
455
355
332
337
348
355
374
388
406
418
415
375
340
326
325
332
335
334
346
354
350
339
348
357
354
351
383
430
372
360
354
366
378
385
407
424
429
421
388
347
333
326
323
328
336
347
341
330
341
360
321
329
322
362
420
368
351
352
359
365
380
386
405
414
411
367
343
317
318
317
318
327
345
340
326
333
333
335
340
341
333
445
366
344
351
359
366
378
391
414
417
411
377
339
319
313
322
303
314
327
327
314
312
303
312
310
312
256
531
330
312
304
310
321
336
347
370
386
375
362
306
293
284
285
288
300
300
312
313
295
295
309
309
305
303
397
338
319
319
320
328
342
351
376
382
398
400
353
325
311
309
307
316
321
334
339
327
325
320
324
321
326
297
484
350
328
339
340
350
359
378
397
405
405
374
331
319
312
312
312
320
326
345
328
325
321
328
328
324
314
450
348
340
335
344
349
358
371
392
404
416
403
368
335
330
336
295
321
329
331
337
351
342
330
341
342
345
340
300
561
359
348
345
359
364
362
387
415
419
414
395
361
330
324
325
324
332
342
351
351
322
322
330
328
327
330
410
357
356
333
340
342
355
380
378
405
415
396
372
334
318
311
320
317
321
331
330
339
327
320
320
328
329
328
302
498
352
335
331
343
348
364
376
397
409
405
381
339
322
317
319
327
327
332
337
342
351
345
345
349
350
352
360
341
495
391
368
367
377
384
398
413
427
444
435
415
377
363
346
353
357
357
352
364
371
366
355
355
362
355
357
315
581
362
357
351
350
354
362
373
381
388
396
376
336
304
288
289
288
293
295
300
306
294
282
285
291
292
291
247
509
308
290
299
299
307
322
339
352
368
377
357
321
293
283
280
282
292
282
296
304
308
303
304
307
309
317
315
288
497
342
319
326
333
335
357
371
381
399
400
372
339
314
309
306
315
307
322
323
330
314
314
325
317
336
323
279
542
325
325
315
357
327
353
373
426
407
389
402
332
336
311
324
317
337
352
348
333
327
337
330
331
331
300
511
350
335
335
349
352
371
394
408
418
416
390
352
326
324
320
324
336
342
341
336
327
335
326
339
341
289
564
373
330
343
346
349
366
379
393
404
409
387
349
324
317
319
318
322
319
332
337
324
327
327
332
328
336
302
502
360
330
338
345
356
368
385
404
417
419
386
351
331
321
323
325
332
343
344
332
329
328
336
333
337
286
563
354
338
350
351
360
373
389
404
413
417
399
357
333
317
322
326
329
349
333
320
323
323
320
327
314
363
373
338
326
329
333
339
360
373
388
399
389
358
317
303
297
304
309
326
322
313
308
306
307
314
314
282
510
324
319
317
326
333
337
356
370
395
396
385
346
313
313
307
313
321
337
327
322
320
326
323
326
330
318
457
347
333
337
345
353
370
385
401
410
408
376
339
324
315
311
320
338
344
327
323
326
322
329
328
301
519
327
335
337
336
347
355
375
385
404
406
394
356
328
319
317
324
334
340
328
320
322
322
324
326
330
312
486
352
335
338
344
352
363
383
398
408
404
377
340
319
315
318
324
341
338
324
324
331
325
327
330
291
577
339
335
334
338
346
350
368
386
404
403
380
346
316
312
309
316
327
336
324
319
314
319
318
323
323
320
454
346
331
331
337
347
360
379
394
404
400
370
334
313
310
316
326
337
325
311
315
314
317
322
322
290
540
341
328
333
335
345
356
375
394
402
404
380
339
318
315
315
320
329
338
343
329
327
329
332
334
335
327
425
361
350
341
347
353
361
372
393
411
418
411
379
345
331
327
320
329
328
338
347
344
334
333
340
337
345
337
407
368
359
342
351
362
365
380
399
419
420
413
383
352
331
325
323
325
331
341
343
335
325
328
330
328
331
292
553
327
333
335
337
344
355
368
384
394
399
388
345
317
308
306
308
312
323
338
321
311
314
317
319
321
321
292
526
341
325
329
337
342
351
369
388
398
401
375
340
316
310
312
315
321
328
344
324
321
322
322
326
329
331
309
503
351
340
340
348
354
369
378
401
411
410
384
350
328
319
319
323
330
342
343
330
322
325
323
328
331
323
397
351
342
334
334
345
353
367
380
396
405
399
368
328
315
309
312
315
326
340
328
315
317
319
320
320
324
301
514
320
335
332
338
344
355
367
386
400
404
393
361
330
313
307
311
321
332
336
319
317
319
318
322
323
314
419
338
337
329
332
338
351
364
377
394
406
400
367
331
318
314
318
319
330
341
342
326
326
327
332
330
333
297
565
328
335
343
343
351
359
375
392
404
410
390
355
325
316
311
314
323
336
334
322
318
320
317
322
322
315
413
339
337
330
335
340
350
364
380
399
403
401
363
327
316
310
314
320
340
326
314
315
314
314
315
321
302
487
316
326
324
330
335
342
359
376
392
399
387
351
319
306
306
306
311
321
334
323
311
311
314
314
316
317
281
559
335
324
328
334
340
354
368
383
401
402
385
349
318
313
312
312
319
321
328
333
318
321
320
324
326
328
285
555
327
328
327
336
339
352
367
384
396
395
378
341
318
309
308
310
320
335
328
314
317
318
316
322
322
301
488
340
326
331
336
345
357
373
393
401
399
372
338
320
313
317
323
335
342
326
317
319
320
323
325
326
294
540
345
331
332
338
347
355
372
391
401
402
380
340
318
313
313
318
323
339
324
316
313
317
318
317
322
279
557
336
322
322
331
337
349
364
382
393
399
375
339
318
310
309
313
325
340
332
321
321
320
319
322
325
310
451
330
338
334
335
342
352
363
384
401
409
403
370
341
327
324
326
336
355
349
336
336
337
342
346
353
348
428
389
376
366
371
379
389
401
418
432
437
431
402
365
354
346
353
359
375
362
349
346
349
346
349
350
331
513
348
352
348
350
357
363
375
390
404
408
397
358
328
314
310
313
317
323
331
333
318
316
319
319
320
322
300
487
331
332
326
328
333
342
355
371
386
392
385
347
315
304
300
299
303
312
321
326
310
310
311
314
316
316
314
356
383
337
321
322
327
337
348
366
383
392
388
362
325
311
307
308
314
326
338
333
321
323
327
327
328
333
329
396
380
352
341
344
352
358
370
385
404
411
406
377
341
322
321
333
323
317
335
342
331
325
328
325
326
333
332
290
566
343
326
334
333
341
353
370
385
397
402
382
342
317
306
306
311
315
321
330
331
323
321
324
328
328
332
291
580
348
345
346
348
361
379
391
416
431
437
422
388
357
342
346
346
353
359
384
416
324
307
350
352
351
356
349
449
374
371
355
343
355
348
358
383
389
385
388
362
323
307
297
296
301
305
321
304
294
293
292
293
296
293
275
448
304
305
303
301
307
321
335
353
374
377
371
332
306
285
275
271
284
297
309
297
291
296
292
293
295
300
259
540
318
310
311
324
332
346
366
377
398
400
385
352
322
326
331
296
329
331
319
304
319
318
316
328
326
308
489
334
333
331
329
344
350
359
373
394
400
383
356
322
299
305
312
313
327
330
322
319
314
317
315
320
312
319
438
342
322
328
337
348
363
385
400
393
409
379
345
331
321
331
328
337
348
353
341
331
340
335
336
336
341
305
515
363
342
340
361
366
369
390
404
410
409
390
356
334
324
331
329
333
345
347
332
330
329
324
330
331
316
481
326
340
335
337
341
351
362
373
388
389
384
353
323
312
303
302
308
321
314
298
294
298
297
305
293
253
529
310
306
308
315
321
334
358
373
371
392
358
324
297
287
290
305
315
309
300
309
297
301
295
303
298
303
432
338
328
335
348
372
390
424
432
435
445
428
393
377
386
367
367
384
391
369
376
358
363
367
367
331
583
369
365
361
371
369
371
387
395
406
412
399
366
331
328
313
325
328
337
326
310
308
305
306
312
304
268
496
319
297
306
309
317
322
345
358
367
363
353
322
300
291
297
308
320
307
300
302
307
302
313
315
289
479
338
318
325
332
343
356
369
388
394
396
371
336
314
310
319
328
333
324
313
313
316
322
317
323
297
501
350
323
326
336
336
354
365
382
393
390
367
331
306
306
308
308
322
322
306
308
314
306
317
314
299
460
333
332
326
338
338
346
360
378
399
391
389
359
323
315
315
324
329
337
324
316
315
324
322
325
328
309
564
354
353
354
367
376
392
407
429
464
436
414
403
369
354
351
370
379
374
375
365
359
359
365
376
337
436
380
369
344
370
362
354
395
392
409
430
401
392
355
338
308
338
337
347
321
326
334
309
316
324
335
300
499
320
327
331
314
330
338
356
369
383
385
397
347
313
310
316
311
319
296
280
284
300
298
296
306
287
465
313
313
298
319
317
342
341
367
378
386
383
323
320
302
292
301
329
315
301
314
313
315
314
319
300
456
345
327
323
324
330
350
370
380
414
401
392
371
332
322
318
331
344
334
322
322
317
320
312
334
315
456
334
347
325
325
339
347
365
387
399
402
389
365
333
319
306
326
331
333
327
318
337
320
327
337
306
566
364
346
351
367
361
376
400
402
428
427
418
379
344
344
345
346
363
349
347
340
339
342
344
342
319
549
347
346
337
350
360
366
377
396
394
405
387
350
323
310
316
322
334
324
310
313
311
314
317
325
276
553
347
322
329
325
336
348
370
381
398
395
382
338
316
310
317
321
338
314
318
313
317
319
319
320
279
565
348
323
322
338
341
352
368
382
395
400
387
343
316
309
314
314
325
333
321
318
323
323
329
327
314
387
372
341
327
332
345
347
362
386
403
404
400
377
332
321
318
307
326
331
338
326
325
326
333
332
334
321
465
336
350
340
340
345
364
378
396
404
410
411
364
342
317
313
319
330
341
325
319
315
322
314
329
320
333
408
344
326
327
333
338
357
367
389
397
390
364
324
306
304
303
311
325
333
317
313
307
322
317
324
320
290
531
348
329
333
336
358
365
379
396
418
414
392
355
328
325
322
331
328
345
328
323
324
331
324
330
328
346
394
347
328
328
333
339
347
361
370
379
382
348
318
308
301
323
326
341
331
325
327
332
324
342
330
288
562
368
340
342
358
358
370
385
409
415
412
403
345
328
325
324
332
343
346
329
334
333
334
339
329
314
471
341
349
338
343
352
363
373
381
408
411
397
370
335
316
312
320
329
338
323
320
318
324
331
324
323
386
383
352
335
322
355
345
360
379
402
407
394
366
324
312
306
314
322
330
319
310
318
312
324
320
330
300
480
352
343
322
337
339
346
367
383
392
404
401
361
333
317
313
321
328
337
317
317
320
319
326
330
341
291
464
354
327
342
340
340
369
380
388
409
405
371
322
317
306
320
325
352
328
323
325
327
323
327
330
321
453
365
333
343
358
354
375
400
407
423
420
397
352
335
334
343
344
362
351
336
342
363
350
367
352
326
548
385
348
352
366
361
359
377
397
399
407
357
329
305
297
274
288
298
285
284
284
267
277
268
272
229
488
295
267
275
288
286
306
320
333
347
346
344
299
281
269
270
276
300
288
288
289
288
284
288
310
278
484
315
312
340
306
326
339
351
370
379
383
384
347
340
302
320
318
331
335
317
318
322
323
326
329
335
339
434
354
345
346
383
324
356
389
381
408
404
381
344
335
319
350
345
362
325
314
324
332
336
342
345
331
497
375
348
349
356
362
374
390
407
412
410
393
351
323
321
325
331
347
340
327
327
328
334
332
331
300
530
333
331
333
335
342
352
364
378
390
391
380
341
309
297
293
298
308
310
296
290
289
289
290
293
252
531
317
296
293
305
315
321
343
358
365
372
356
311
290
284
290
309
320
310
312
315
322
324
334
336
350
437
361
343
350
359
372
387
403
421
429
425
403
371
352
353
361
373
361
355
353
352
354
354
355
388
445
364
352
354
360
367
380
397
414
418
412
379
349
333
333
338
348
330
324
326
329
328
329
300
524
325
334
330
334
339
348
360
374
382
386
377
344
313
300
302
309
305
294
290
291
292
295
298
272
516
311
313
316
321
334
344
362
376
388
392
387
355
327
324
332
345
330
323
324
327
328
332
335
299
567
348
343
348
352
358
368
383
397
404
406
392
360
338
339
345
350
335
328
327
330
337
335
336
311
522
357
339
341
349
353
366
378
387
397
397
375
349
327
327
339
342
324
316
316
319
319
322
314
441
322
335
332
336
343
352
366
379
385
390
385
359
332
323
329
341
328
320
319
321
324
324
327
292
550
347
331
334
342
350
361
377
392
399
401
385
349
331
332
342
351
337
332
334
337
338
341
342
329
497
365
347
354
355
360
377
391
410
418
416
392
360
341
347
353
369
352
352
353
353
345
348
401
311
571
374
368
371
376
384
404
417
428
443
436
416
385
363
351
351
377
367
351
355
357
355
361
356
409
398
375
369
368
365
361
366
397
411
413
407
375
343
330
325
328
348
335
325
314
316
320
329
331
336
432
352
331
333
338
353
376
362
350
371
369
347
319
301
303
310
324
320
299
299
306
323
289
295
328
377
320
295
302
315
318
335
357
365
378
374
342
316
322
274
337
264
296
297
301
304
309
313
294
465
338
332
357
320
310
345
373
374
394
403
392
359
330
328
329
334
357
337
340
335
321
335
332
343
327
488
369
352
348
353
364
378
378
406
418
405
379
343
322
322
324
334
343
334
320
328
322
331
327
301
518
328
336
334
343
352
363
383
403
416
423
409
372
350
340
341
357
374
365
354
351
354
357
358
362
374
455
388
367
372
379
388
401
417
430
439
432
400
363
349
344
345
352
364
350
346
345
347
339
344
346
302
579
353
344
345
349
354
364
378
392
407
405
386
347
321
314
312
312
318
329
330
312
313
315
313
319
319
306
431
328
326
318
321
330
339
352
368
385
390
384
351
317
306
303
304
311
317
332
323
314
316
317
319
324
309
461
323
330
324
329
335
341
359
374
389
396
383
345
318
306
303
303
307
317
325
328
314
317
316
318
316
321
289
522
326
327
328
330
348
353
364
391
407
414
398
368
333
325
325
330
335
343
354
353
343
352
351
355
359
356
409
408
383
363
368
371
385
394
407
425
432
425
386
352
333
329
327
330
335
343
356
338
335
343
344
348
358
345
475
367
362
355
358
367
375
389
408
421
431
418
387
352
336
331
324
328
337
342
325
322
320
322
328
330
314
468
347
331
320
319
320
339
349
367
382
389
377
340
313
298
303
295
307
311
325
315
309
312
313
321
323
304
461
332
323
317
317
324
333
356
384
374
398
391
353
320
312
308
312
312
326
339
317
311
315
321
312
316
313
424
354
350
352
354
359
370
385
410
431
438
433
396
365
360
358
363
372
395
385
377
376
371
376
385
346
571
379
381
385
378
384
392
405
425
434
445
421
380
349
335
338
345
356
354
340
335
346
334
345
335
302
564
342
334
329
336
362
334
363
367
380
378
342
303
279
260
263
260
266
278
250
248
242
233
245
241
218
385
256
249
247
246
257
273
282
302
317
329
318
286
264
255
256
259
278
287
291
281
279
289
290
290
290
287
418
327
305
310
319
331
344
354
377
387
382
358
326
302
300
304
302
314
316
301
303
298
302
304
304
261
534
328
316
291
308
319
329
341
359
366
371
362
321
298
292
296
291
301
313
317
295
300
298
301
307
305
339
368
332
313
326
327
346
356
373
382
397
391
372
339
318
323
323
337
348
345
331
337
337
340
345
342
339
453
375
350
355
362
372
384
399
415
414
417
397
355
339
339
335
342
357
346
338
338
342
341
346
341
398
374
359
346
347
352
361
375
391
403
406
400
376
351
329
326
335
343
349
336
338
338
334
340
344
338
344
412
363
345
348
354
367
374
394
405
402
409
389
352
336
323
329
342
343
327
325
322
323
330
321
301
486
328
335
325
333
336
351
361
373
384
390
382
349
324
313
314
327
339
328
321
320
321
323
325
323
349
406
355
338
342
349
354
372
383
396
406
396
375
342
324
319
330
338
346
332
331
330
331
331
334
333
355
403
358
341
347
351
358
369
385
400
402
398
386
341
325
331
330
350
350
334
329
331
336
339
336
307
527
338
341
340
345
355
364
382
397
408
414
397
360
333
320
315
326
340
325
316
312
315
314
319
318
303
455
348
323
330
336
345
358
375
391
397
394
373
338
320
313
324
335
337
325
327
325
325
327
327
322
386
368
351
338
342
344
358
366
382
399
400
395
366
334
316
315
317
331
343
327
322
322
327
327
324
333
289
550
344
332
332
339
343
358
375
387
404
402
390
352
332
323
317
323
331
346
337
324
340
322
329
339
331
310
508
357
338
339
355
358
363
379
398
403
406
378
343
331
311
321
336
349
325
319
319
317
325
317
333
281
575
345
326
340
325
337
358
362
384
393
388
371
347
307
295
304
316
334
316
323
307
311
315
322
290
527
326
332
331
337
343
361
368
389
417
412
415
368
342
330
336
345
362
358
335
343
345
346
344
347
304
575
346
331
318
333
349
357
370
389
407
416
405
360
353
313
314
330
351
350
336
327
335
339
341
352
321
508
359
339
352
346
352
358
374
393
390
396
379
323
296
306
301
305
317
308
298
292
285
286
278
318
242
493
307
289
290
301
298
313
332
343
349
367
357
319
292
288
289
289
303
304
288
290
283
289
292
283
271
455
277
292
298
307
313
306
336
354
370
372
370
337
314
298
293
314
323
328
314
303
306
315
315
321
287
550
353
325
332
341
348
373
383
402
419
419
391
346
329
328
341
335
342
329
333
328
328
334
337
295
576
367
345
339
341
350
363
378
393
403
403
385
354
324
315
322
333
344
346
313
277
311
324
331
336
300
541
367
345
304
331
379
369
388
388
378
396
388
317
307
318
322
327
350
327
318
312
305
322
339
334
303
468
389
334
344
355
368
374
400
414
415
427
388
362
346
342
344
359
372
368
347
364
363
355
367
372
320
583
401
374
378
383
397
400
429
443
441
449
436
377
351
361
349
371
356
366
342
343
359
341
340
347
389
363
362
332
343
346
366
359
381
402
396
380
340
326
304
316
307
324
308
315
295
303
303
302
309
269
481
321
316
329
308
323
343
352
370
389
384
372
331
296
304
287
309
308
306
299
306
307
306
306
305
285
488
326
324
296
314
326
344
349
369
382
385
379
336
320
302
286
305
319
316
302
322
328
310
314
314
288
509
327
323
330
341
330
358
367
385
403
399
395
358
329
330
316
343
346
359
341
341
342
348
351
356
332
466
384
376
359
370
369
381
405
406
440
424
424
383
346
338
340
337
341
365
342
330
340
342
346
341
346
292
565
344
329
326
336
341
348
367
374
387
386
369
336
306
302
297
299
314
317
301
303
302
298
301
309
300
302
397
332
306
315
306
332
344
367
378
393
382
357
320
300
306
311
314
339
329
311
325
316
321
336
327
314
476
346
345
347
348
353
361
375
397
409
409
409
375
346
326
321
318
332
346
336
323
325
329
334
332
334
294
566
339
333
338
338
349
358
377
393
403
403
394
354
319
300
312
314
321
332
307
310
322
313
316
322
325
338
405
347
333
337
345
354
364
377
396
406
402
373
341
328
322
319
331
340
348
337
334
332
335
339
342
346
298
557
365
340
348
348
356
366
389
404
408
413
384
348
321
315
317
312
327
333
334
321
323
323
331
327
327
287
557
346
332
336
340
348
355
374
388
404
404
392
354
318
314
307
318
336
338
327
315
325
318
329
328
329
295
525
341
334
333
344
347
362
378
396
409
422
411
376
345
339
330
335
345
355
345
341
343
345
351
351
359
314
581
372
350
356
355
361
374
390
413
417
428
412
369
336
329
327
325
342
347
332
321
318
321
318
319
325
277
567
345
314
316
323
332
337
358
374
386
394
374
331
303
293
296
299
303
319
304
303
298
299
304
306
308
265
541
333
308
318
324
329
340
360
366
387
388
383
343
311
306
307
307
312
325
329
319
316
319
319
327
327
303
476
353
335
332
342
347
359
372
397
408
414
418
383
346
332
332
335
348
358
358
351
352
353
358
359
359
358
406
405
380
374
379
386
389
408
414
432
434
439
411
369
352
337
340
350
363
349
335
333
336
338
332
340
305
502
353
332
335
337
345
357
372
389
391
386
371
320
295
294
307
316
310
321
310
289
297
307
294
301
299
281
446
336
313
306
317
321
333
347
372
387
391
363
325
306
296
294
301
315
327
305
302
309
318
307
318
315
280
544
336
312
324
343
353
356
357
384
401
411
395
374
311
319
311
351
322
345
354
337
311
328
331
349
365
290
437
381
367
342
353
367
394
396
406
427
438
429
397
351
347
330
331
341
355
348
326
328
322
327
310
321
295
464
337
332
314
325
326
330
349
367
380
392
381
348
309
290
285
300
296
320
301
298
299
296
306
306
301
265
521
332
307
315
325
338
352
366
384
392
400
373
327
324
313
294
321
337
336
324
323
327
324
334
331
298
557
330
326
335
341
347
360
373
398
410
403
398
356
333
316
312
321
338
340
322
318
321
322
318
331
321
317
462
351
331
331
336
343
359
370
388
400
393
371
332
310
305
313
319
333
323
312
312
316
319
319
318
290
540
319
328
325
332
341
350
367
385
398
403
391
357
328
317
319
327
340
349
330
322
331
333
333
335
340
303
568
357
342
341
349
357
369
383
402
410
412
390
351
325
320
318
327
334
345
330
325
326
324
325
327
331
289
573
339
334
333
340
345
358
371
392
405
408
392
354
323
315
316
316
326
335
342
330
324
328
330
332
332
334
312
508
347
338
341
347
353
367
387
403
409
410
388
351
330
320
321
322
334
352
337
328
324
327
329
331
334
311
512
329
342
338
345
347
363
371
392
402
406
404
365
334
320
317
323
335
347
333
324
326
331
331
333
337
323
496
345
355
350
358
363
376
390
408
424
433
428
392
361
346
347
349
353
362
365
371
360
357
358
359
360
357
355
314
595
360
346
351
350
356
361
375
388
395
395
373
333
304
289
283
284
284
292
301
288
277
277
276
279
280
282
246
496
279
287
284
292
301
311
326
346
359
367
358
322
292
280
279
283
287
299
311
302
297
298
302
307
309
314
282
543
320
325
326
332
342
351
363
382
398
403
393
357
326
311
313
314
317
323
326
334
338
325
327
329
332
336
337
318
487
340
343
343
340
351
359
374
387
406
417
411
379
338
325
321
325
328
332
339
345
349
335
337
338
341
347
349
313
587
362
357
363
369
380
389
406
424
438
439
423
385
353
346
342
345
353
364
367
351
346
345
349
349
352
309
595
351
350
347
351
355
370
383
399
412
415
398
359
326
318
311
320
330
345
333
321
319
321
321
322
327
278
594
342
328
327
336
344
354
373
387
399
404
385
344
317
309
307
315
326
336
322
311
315
314
316
315
315
306
465
341
320
326
329
338
351
366
380
392
391
369
331
308
303
308
315
329
326
312
312
312
319
322
321
282
568
335
327
339
334
350
364
383
404
411
418
404
375
350
333
341
354
360
359
348
346
350
355
356
362
320
609
376
368
369
380
384
392
411
427
438
439
420
384
353
343
344
352
364
350
340
338
338
335
335
336
315
499
350
331
333
341
347
357
373
391
395
394
368
329
309
303
309
320
325
307
297
302
301
304
306
304
283
482
316
302
308
315
322
337
352
368
376
377
352
319
293
290
296
316
314
299
295
297
297
302
304
294
432
316
320
316
321
327
342
355
369
386
389
383
351
318
306
304
314
332
323
312
314
314
319
322
325
303
504
328
333
331
338
343
353
370
388
400
409
398
366
337
322
325
329
346
338
326
325
331
329
332
335
327
443
351
349
343
349
355
364
377
392
409
414
410
378
343
327
327
329
340
353
338
324
326
327
324
331
331
303
539
342
334
334
341
350
359
377
396
403
404
381
344
321
312
318
331
343
325
320
317
319
321
323
325
288
560
342
330
329
337
342
354
370
385
397
396
376
335
315
307
307
318
330
333
319
314
317
317
318
320
320
351
398
343
327
331
338
344
361
378
392
404
402
370
341
322
321
322
330
341
354
341
335
335
344
345
351
355
323
581
373
363
366
373
381
393
410
429
435
440
417
381
354
346
348
357
373
366
352
347
346
346
349
348
346
409
387
368
355
361
367
376
387
409
423
428
425
394
356
341
338
341
349
364
359
347
346
346
348
348
348
337
456
366
362
350
353
359
368
377
393
408
413
407
374
335
320
314
317
323
329
339
323
314
314
313
315
315
317
279
535
324
317
315
317
324
333
348
366
380
385
373
342
307
298
297
301
308
317
324
311
304
309
312
310
313
306
410
333
332
325
329
336
343
359
374
390
397
392
358
326
311
307
305
318
328
342
326
318
319
322
322
325
324
323
453
349
332
337
343
352
364
379
396
402
401
375
338
319
314
313
323
335
333
321
319
320
322
323
325
324
359
399
347
333
337
345
353
367
385
402
410
408
379
344
325
321
320
328
337
351
335
328
327
328
328
332
333
299
553
341
339
339
343
351
360
376
393
407
410
400
362
335
326
322
324
332
340
348
331
324
329
333
332
332
336
298
571
347
340
342
346
356
363
379
397
410
412
395
356
327
319
316
319
328
338
350
333
329
329
331
337
338
317
522
341
353
349
354
360
370
386
403
420
423
415
375
346
333
333
335
343
360
346
338
338
341
343
343
344
326
509
348
352
346
350
356
364
377
394
408
413
406
369
332
320
315
322
332
341
324
317
318
321
320
321
322
287
546
339
324
325
333
339
350
366
385
391
398
378
339
312
305
303
312
322
327
310
306
308
305
310
309
314
313
437
331
319
322
332
339
352
368
386
392
397
377
338
320
314
317
328
345
343
329
327
332
334
336
341
337
433
368
363
352
355
362
373
385
403
419
425
422
389
353
338
332
336
345
358
345
335
334
335
337
340
341
321
517
342
348
347
353
355
365
376
393
406
411
405
368
335
323
321
322
327
338
347
331
328
325
327
329
330
331
301
541
348
333
335
340
350
358
372
389
399
401
383
343
318
312
312
314
325
340
324
315
318
318
319
317
322
306
459
324
334
325
333
339
350
362
379
395
399
393
362
329
310
306
308
319
335
324
313
312
314
313
317
319
295
519
319
329
328
333
338
350
363
380
394
398
389
355
323
311
308
315
327
335
320
315
317
316
320
321
324
288
554
338
328
334
339
341
356
366
385
401
404
395
356
327
317
313
323
332
340
323
316
321
323
320
324
327
301
530
343
335
337
348
353
363
386
399
410
416
395
355
335
329
327
336
351
349
333
329
330
330
330
334
299
544
328
339
339
346
348
360
372
392
401
408
398
359
329
319
315
323
338
339
323
318
320
323
322
329
326
317
475
342
331
334
342
350
357
374
391
397
396
375
333
313
312
307
320
335
318
307
307
307
309
312
319
292
515
316
325
319
325
333
339
352
372
385
392
384
348
316
306
304
315
330
323
311
312
314
316
319
326
296
550
341
337
341
347
356
368
391
408
424
435
421
386
357
348
350
359
370
374
363
361
364
368
370
376
373
390
483
399
383
390
394
401
415
432
448
456
453
428
384
363
355
354
355
357
358
340
327
324
322
315
311
307
282
450
315
290
293
295
294
302
312
325
333
327
302
263
245
233
231
244
256
240
231
233
232
236
238
243
239
335
273
270
264
268
277
289
304
323
338
350
348
322
294
278
274
285
295
311
296
287
287
294
300
306
309
279
534
314
320
324
330
339
348
364
385
394
397
389
356
331
322
320
330
345
338
326
328
326
328
332
334
329
416
366
358
344
347
354
357
373
385
405
413
410
382
342
329
323
331
339
346
333
325
326
329
331
329
324
428
350
348
334
341
344
353
368
383
398
404
399
367
334
321
316
324
335
338
328
322
326
327
329
333
314
485
338
340
338
340
349
358
373
389
404
408
404
370
339
327
328
339
349
336
328
330
336
336
342
343
309
573
356
345
351
355
361
370
385
399
409
413
392
357
332
323
333
343
349
331
328
331
331
334
337
342
324
501
357
344
351
359
368
380
394
408
417
414
397
360
334
333
341
358
343
330
331
332
332
335
334
330
400
369
350
338
343
347
355
367
382
397
403
399
369
334
318
315
323
340
337
325
323
325
324
328
329
331
323
476
355
336
341
349
354
366
382
401
409
409
382
345
325
322
328
339
341
325
322
324
325
324
328
330
291
547
340
330
333
336
344
358
375
391
399
402
380
345
324
316
313
329
338
323
314
316
318
321
321
324
289
536
339
325
327
334
341
351
368
384
394
397
378
343
323
321
327
345
341
334
333
341
342
350
358
358
364
493
392
379
386
393
400
413
431
449
458
461
438
402
384
380
384
392
398
383
373
369
373
369
367
369
325
589
364
352
354
358
359
369
375
392
397
394
375
340
314
306
306
312
321
300
287
284
283
281
280
278
237
506
270
268
266
269
273
284
297
314
321
323
308
271
244
235
239
250
263
247
243
247
247
254
254
259
221
506
274
266
270
278
289
302
320
339
352
361
349
308
288
280
285
297
311
313
302
300
305
308
311
315
298
462
311
329
324
328
339
348
369
384
402
404
399
366
337
322
321
332
343
347
335
328
331
335
338
340
338
370
410
359
346
349
356
363
377
396
409
418
416
387
350
334
333
339
357
348
338
336
343
341
345
348
337
468
361
359
351
354
361
368
381
396
409
418
411
377
345
327
327
332
343
352
336
333
334
332
338
339
334
360
420
350
337
347
349
360
370
389
404
410
409
381
339
323
316
320
334
351
334
322
323
324
329
329
329
307
516
339
327
334
337
343
360
380
393
401
398
380
345
315
310
321
331
334
318
314
316
314
317
310
314
314
444
338
319
324
330
340
363
377
399
410
408
383
345
328
326
337
348
340
332
336
339
341
344
347
312
596
373
359
360
371
373
386
401
419
428
429
409
370
345
337
343
347
354
340
336
336
338
351
352
339
398
391
365
345
353
351
354
368
381
397
404
400
369
336
319
321
336
337
321
318
317
322
325
327
327
374
379
348
334
339
348
358
371
388
401
406
402
374
337
333
338
332
324
315
321
321
322
327
332
291
591
359
338
343
351
363
374
391
406
420
422
403
369
347
350
363
361
346
343
344
348
352
356
334
509
353
361
357
360
363
376
388
401
411
414
403
371
343
333
340
345
329
323
319
322
328
328
332
294
549
338
332
330
336
340
349
359
370
381
380
361
325
303
294
306
314
300
290
289
289
294
293
299
261
518
308
305
311
316
324
331
349
367
373
378
357
323
301
300
307
326
311
303
301
302
304
305
311
272
545
318
316
321
327
334
347
361
379
389
390
376
341
316
310
319
336
324
313
317
319
320
324
327
302
502
322
335
331
336
346
354
367
383
398
400
390
359
332
319
325
337
347
331
325
329
332
332
335
340
324
486
362
347
353
359
370
381
400
414
424
420
397
362
344
339
348
363
361
347
343
346
347
347
351
343
405
389
369
354
358
366
373
385
399
412
419
410
381
348
331
330
337
351
340
327
327
324
325
324
324
284
533
298
297
293
291
296
301
308
319
323
318
308
269
230
216
206
209
243
239
232
240
263
282
296
320
300
579
371
398
401
412
423
437
455
473
484
488
473
433
403
389
389
393
403
404
382
373
369
368
367
366
353
471
367
369
360
363
367
371
382
395
406
405
387
336
281
251
235
233
246
268
266
257
258
257
257
261
264
237
484
290
279
281
283
287
296
316
334
346
352
326
283
255
250
245
250
261
256
241
240
235
228
229
237
227
305
262
252
247
257
269
281
301
322
339
348
346
320
288
276
272
279
295
308
295
290
282
262
253
259
263
227
507
281
277
281
290
298
297
310
326
339
342
320
280
262
257
258
262
278
293
291
278
285
292
299
313
319
307
477
332
347
341
345
352
363
382
401
422
431
431
417
408
427
462
504
558
613
654
659
660
661
661
660
660
660
657
662
661
652
600
590
583
576
575
577
577
567
540
484
444
414
404
384
386
384
383
357
344
332
326
315
311
288
437
296
300
288
288
290
298
313
326
340
341
330
295
260
248
246
248
262
278
265
258
263
264
270
277
281
271
453
316
301
308
319
331
346
371
388
401
404
380
340
326
322
324
338
351
356
341
339
340
339
341
342
304
573
349
342
345
348
351
360
376
391
402
402
