312
313
316
318
324
331
344
359
376
384
389
360
318
294
299
296
300
300
309
310
312
314
317
322
328
327
329
329
262
402
384
330
336
342
343
341
349
360
373
386
395
402
390
348
316
312
305
306
308
313
314
320
317
324
326
326
328
324
332
256
427
378
334
322
331
332
335
336
348
356
377
388
393
380
338
305
291
288
285
292
295
299
300
301
301
303
307
307
309
310
299
306
381
348
315
318
318
322
326
332
344
359
377
387
387
359
316
296
293
294
293
298
302
306
309
309
314
318
322
322
325
326
260
430
396
336
324
327
334
338
339
350
364
378
385
396
388
348
314
303
298
299
301
301
308
307
309
308
311
311
317
317
310
317
320
248
386
369
323
318
323
329
326
330
339
349
366
370
380
371
332
297
284
284
285
289
291
297
299
301
307
304
311
317
315
324
244
431
389
323
323
324
323
332
337
347
359
372
388
397
385
345
309
296
298
300
298
304
304
307
312
313
317
317
320
330
331
331
331
300
362
400
359
330
329
338
338
341
350
362
376
392
396
401
371
330
307
300
298
304
303
309
312
319
318
318
319
319
324
322
327
326
325
269
432
385
338
332
334
336
337
344
352
357
375
385
391
389
354
316
298
295
295
297
298
305
307
313
312
312
313
319
324
320
322
324
325
262
404
372
326
327
329
332
335
340
353
364
382
388
395
380
338
313
306
300
303
311
308
313
317
321
323
319
323
328
328
327
331
328
290
383
390
350
327
327
331
335
339
343
358
371
382
390
389
362
321
303
295
295
296
301
307
306
309
310
313
316
315
318
321
322
319
323
329
260
436
382
334
325
329
328
330
338
345
353
367
377
383
383
351
311
293
290
294
296
301
304
307
308
311
311
311
316
309
318
319
322
321
324
311
306
384
360
325
324
333
344
329
344
356
377
389
394
396
379
337
311
303
301
300
305
312
310
317
320
315
324
318
326
320
328
327
330
327
330
328
284
365
375
327
336
331
335
341
346
349
362
377
386
391
381
341
306
297
297
301
302
303
308
309
308
311
314
311
315
322
320
321
324
323
247
426
388
326
325
330
329
337
341
346
359
374
388
390
382
339
308
294
293
294
299
300
300
303
306
308
311
309
314
315
316
316
316
320
253
426
385
324
313
320
312
319
328
331
345
359
369
377
375
343
304
287
285
282
283
288
289
293
300
297
295
297
304
312
308
313
315
315
265
362
363
323
326
323
327
335
337
350
361
379
385
391
379
336
306
296
298
301
306
305
312
314
320
315
320
320
324
326
328
330
336
310
336
402
365
333
337
336
338
341
350
359
377
387
402
400
374
334
310
307
306
310
309
313
320
318
319
323
324
328
319
324
332
335
331
336
334
287
366
371
332
329
333
333
340
343
348
361
370
380
389
373
335
303
289
286
284
285
291
290
295
293
294
296
298
296
299
297
290
264
340
339
297
306
307
314
316
321
330
346
360
373
378
349
306
281
279
278
286
287
293
295
301
304
304
307
313
318
319
321
317
322
259
430
408
339
323
326
331
336
340
346
362
373
390
398
397
363
325
305
304
304
307
310
317
321
321
327
328
324
327
332
334
334
335
337
273
444
409
345
338
339
339
344
348
354
365
381
391
399
398
363
324
308
304
309
302
305
310
311
313
312
314
318
313
321
323
325
326
327
331
264
417
376
336
331
332
336
339
346
350
361
374
386
390
389
351
315
297
297
298
298
301
305
308
310
308
311
315
318
317
318
324
266
405
385
336
315
320
323
322
327
337
348
365
379
387
383
351
312
295
292
292
296
300
303
306
306
308
313
315
316
317
322
322
322
330
307
348
363
357
330
332
334
337
339
344
353
365
385
387
392
373
332
301
293
293
293
293
297
298
304
301
303
303
306
307
312
308
312
315
237
418
368
313
313
311
315
319
323
331
344
356
370
378
371
333
295
286
289
286
289
294
298
304
307
308
313
314
316
314
325
323
326
329
319
304
367
363
328
329
331
337
338
344
353
370
379
391
400
386
342
312
306
303
305
308
313
316
318
323
325
322
324
329
332
331
332
333
271
441
398
340
330
335
336
341
340
351
359
377
387
395
394
360
318
305
304
301
300
306
308
311
308
315
318
318
315
320
328
323
325
327
333
259
432
378
335
330
330
334
336
342
346
359
375
383
388
385
354
314
297
298
296
300
299
308
302
312
309
309
307
312
316
315
319
323
320
262
388
365
321
321
322
324
324
329
340
352
366
374
384
370
328
295
287
283
281
287
288
288
295
297
298
298
300
307
299
305
311
309
313
312
315
247
416
371
321
318
319
322
327
332
338
351
363
376
383
378
352
314
297
294
294
299
298
309
310
312
311
314
313
312
319
325
322
324
329
331
257
422
378
329
332
331
338
336
341
359
366
376
390
395
385
355
312
298
300
300
312
308
317
315
321
321
322
322
317
325
332
324
324
333
337
280
368
369
323
332
334
334
337
356
346
365
387
381
401
366
337
310
297
298
274
293
300
291
312
308
310
304
310
318
317
319
333
330
280
357
369
325
330
331
329
339
339
367
369
380
398
401
384
340
312
301
299
302
301
304
314
306
310
320
311
313
320
325
333
332
319
299
407
360
327
329
331
336
332
336
350
362
378
389
394
379
328
302
296
296
295
293
297
297
304
307
303
307
313
310
314
313
317
322
306
326
348
361
324
328
323
333
344
340
344
361
376
389
396
381
334
305
296
294
300
299
302
311
309
304
309
319
318
315
320
324
312
291
399
358
323
322
329
331
334
340
348
360
380
389
398
370
326
302
290
297
301
295
300
306
307
307
314
318
317
325
327
323
321
324
296
404
360
324
327
329
332
338
340
347
362
384
387
399
373
330
300
295
298
303
303
303
308
307
315
317
316
316
319
330
322
326
331
331
245
429
395
334
323
329
332
337
344
348
366
383
389
400
395
355
317
300
296
298
301
298
310
306
312
308
316
321
322
319
318
321
296
368
352
354
324
327
331
332
338
340
355
363
384
392
391
365
321
297
290
292
298
303
299
303
306
308
310
318
315
321
322
257
431
393
333
320
329
329
329
337
346
360
372
386
395
384
342
304
299
300
297
296
301
307
308
311
312
318
319
325
327
330
296
361
389
355
331
328
333
333
335
347
361
375
384
402
399
364
320
307
301
303
307
306
306
319
313
318
320
322
331
322
326
329
284
365
372
330
327
334
337
347
346
358
372
377
392
394
375
335
307
291
292
294
292
306
305
303
309
306
317
315
322
322
301
318
378
350
317
318
325
325
332
341
351
367
380
397
387
360
318
301
299
294
301
302
300
304
311
305
313
312
320
316
319
305
309
364
356
323
324
325
330
339
344
352
364
383
399
390
366
327
301
311
293
294
299
296
307
304
314
319
311
323
328
308
309
333
359
321
326
324
337
340
339
348
378
381
396
400
365
322
298
301
302
301
306
315
307
314
310
311
331
315
315
328
249
425
392
314
332
325
332
337
330
350
356
381
400
392
368
334
310
299
294
291
301
309
303
305
305
313
319
318
320
329
284
402
379
341
325
335
328
331
336
350
360
372
392
397
395
346
317
299
293
294
306
300
304
306
304
315
312
321
319
328
280
377
381
345
320
333
329
332
332
341
352
392
376
388
377
344
312
290
294
297
295
293
309
313
304
311
311
304
324
322
308
321
281
389
399
342
319
323
336
350
329
352
360
369
392
395
393
356
309
299
297
300
293
308
303
311
309
311
319
325
323
330
326
260
408
387
334
334
333
337
342
345
357
371
392
396
400
393
346
311
304
302
303
307
314
310
318
314
320
320
324
323
323
266
429
385
331
326
326
330
332
331
342
358
379
385
394
377
330
300
294
293
293
299
298
305
304
306
309
316
316
317
317
321
254
398
372
320
324
321
325
336
338
346
361
373
389
392
369
329
296
289
294
290
288
290
292
298
305
313
304
310
313
310
254
414
365
326
315
313
319
322
329
335
350
367
379
386
379
337
304
290
287
289
290
293
298
308
312
307
306
305
312
253
400
390
326
312
316
317
321
329
337
352
367
387
396
380
333
303
299
292
294
297
295
301
306
317
324
316
317
327
321
281
357
401
340
318
315
321
327
335
345
351
359
381
399
394
350
311
298
299
300
302
301
306
310
314
320
323
321
322
321
325
280
389
391
343
325
329
331
335
341
346
359
374
393
397
391
354
313
308
302
299
303
301
313
310
316
328
320
324
325
329
315
307
342
365
326
331
333
334
336
346
352
371
383
386
392
359
318
302
287
291
285
292
296
291
303
301
297
297
296
301
242
384
343
304
307
312
311
318
325
331
345
359
373
380
360
319
296
287
286
293
292
298
309
317
311
309
315
321
297
358
382
349
330
339
331
332
334
344
362
357
371
387
383
347
304
295
281
299
294
299
296
312
310
305
312
323
322
317
267
420
378
327
322
323
322
335
342
350
367
383
391
405
391
346
313
311
305
307
310
317
319
321
329
325
324
327
328
328
266
420
367
336
327
333
330
333
343
351
366
376
384
389
369
332
310
302
300
303
299
305
308
312
317
320
315
313
320
319
260
414
361
323
318
322
322
329
333
339
354
365
378
380
370
329
298
294
290
294
300
300
304
308
317
318
315
318
319
326
267
416
358
323
324
322
325
327
332
343
352
369
376
384
370
333
300
292
294
296
299
302
305
303
310
310
314
312
317
320
261
421
362
327
326
328
332
335
339
348
359
374
385
387
380
340
317
304
303
301
306
307
310
315
320
320
321
319
324
326
298
335
358
325
335
339
342
344
347
359
368
380
385
387
363
327
305
298
299
298
304
304
309
312
314
314
315
314
318
305
311
344
352
317
321
323
327
330
337
345
358
372
377
379
352
318
301
296
301
301
305
311
309
313
315
318
318
319
324
325
313
327
344
354
331
330
331
334
340
346
356
366
376
386
384
361
333
315
308
303
308
309
317
317
323
322
328
331
331
330
330
335
282
442
368
348
332
336
333
337
345
347
356
372
381
384
382
346
314
300
297
296
297
302
306
313
315
311
312
314
318
277
403
360
334
321
321
325
328
330
338
351
370
375
386
377
345
308
298
296
299
303
307
311
314
315
320
323
325
325
326
328
289
399
380
347
330
332
335
336
341
350
361
370
382
392
385
352
317
306
304
302
300
306
308
308
312
313
312
316
316
319
320
323
324
324
319
315
350
351
322
325
330
333
335
344
350
365
374
381
381
368
331
306
302
296
298
302
303
306
307
307
307
312
306
311
314
316
254
404
359
318
318
318
329
324
336
338
354
366
373
384
364
332
302
295
295
296
296
303
305
308
309
313
312
311
316
318
320
324
325
328
263
433
378
335
328
331
329
336
337
346
356
372
385
387
386
356
320
307
301
304
304
307
311
314
313
317
323
319
322
324
326
327
297
379
341
355
329
333
335
337
341
346
360
371
378
385
384
361
322
308
301
299
305
305
305
310
314
311
319
316
318
319
319
322
275
378
358
321
321
328
326
333
333
344
355
372
380
380
364
323
303
294
293
296
299
304
303
306
305
310
310
307
319
318
320
322
322
325
265
413
363
321
325
329
329
333
339
346
363
373
384
387
383
347
313
308
304
308
310
310
317
320
320
322
320
321
328
329
330
329
332
278
402
369
335
335
336
338
344
345
353
363
379
389
391
381
338
309
301
303
298
303
308
311
312
316
312
316
320
321
317
320
322
257
420
363
324
320
321
324
328
334
342
352
362
379
383
376
332
305
297
297
295
302
302
302
303
310
314
311
320
321
325
319
327
296
381
352
349
323
328
334
335
340
349
356
369
386
390
387
357
324
304
303
297
302
306
312
313
315
316
318
320
318
319
323
323
267
434
364
332
323
325
325
329
331
344
353
364
382
382
371
336
306
289
292
297
297
306
305
305
311
308
313
320
317
315
321
326
283
402
371
343
328
322
326
329
328
337
352
368
375
384
380
354
314
300
299
300
300
299
306
309
314
313
320
317
320
322
320
284
362
356
332
330
335
333
341
347
352
369
383
384
390
373
338
307
305
305
301
310
311
316
320
313
324
319
319
322
324
263
413
369
324
325
323
331
332
341
346
355
372
383
386
372
327
305
295
294
292
292
303
303
314
309
306
310
311
309
258
372
348
313
320
318
318
328
330
342
354
368
379
377
351
322
298
296
298
296
299
310
314
317
311
314
316
320
269
416
364
330
328
326
326
328
334
347
358
377
392
388
377
346
315
305
308
304
298
321
323
319
318
323
322
328
274
411
359
329
333
329
338
335
346
355
366
381
391
388
369
331
307
298
298
299
302
313
324
312
313
316
314
319
276
369
356
319
323
327
329
337
337
353
367
383
390
387
351
315
301
305
300
301
304
313
314
324
317
321
319
320
294
384
355
339
324
327
324
327
332
341
350
367
381
390
371
338
306
291
295
291
292
290
301
305
312
309
312
306
312
312
275
330
353
315
313
321
319
329
333
345
358
377
380
374
348
310
293
290
293
288
294
304
307
312
314
307
313
316
316
262
400
357
314
317
321
324
328
338
338
366
375
386
392
361
328
301
305
300
306
303
311
315
318
322
328
323
324
325
329
271
424
368
345
326
332
334
337
344
349
367
380
393
396
381
344
311
304
306
300
308
315
322
315
335
324
325
325
322
307
329
341
360
320
329
331
338
337
347
358
367
386
390
383
342
310
298
290
296
295
299
305
305
315
317
313
317
314
315
262
415
364
321
319
324
324
326
335
341
353
375
382
389
371
331
302
303
294
295
297
305
303
304
318
310
320
313
320
318
275
410
351
338
323
327
330
341
336
346
364
368
389
399
384
352
311
301
297
297
303
311
307
314
324
317
318
316
316
322
270
432
369
334
323
332
320
343
332
336
354
366
369
389
372
336
303
298
302
297
301
299
310
315
311
324
317
308
323
329
274
404
369
339
327
329
339
333
335
348
359
371
382
399
378
352
314
304
301
303
306
307
308
312
325
328
325
324
325
326
281
359
367
330
331
332
343
333
344
360
368
383
391
396
358
318
303
293
295
302
298
308
308
311
318
327
313
322
319
324
261
425
375
328
329
326
320
339
331
343
351
381
380
398
365
336
303
300
300
299
299
304
301
308
320
321
318
315
322
318
260
375
361
323
329
323
328
337
345
348
367
382
385
388
363
331
302
293
297
293
297
304
297
307
315
314
324
309
318
276
383
366
342
318
321
324
326
330
350
362
367
385
394
381
342
304
297
297
298
296
301
304
308
309
318
316
314
319
320
285
378
372
344
326
327
327
331
336
339
353
369
382
393
380
346
314
298
299
297
302
302
306
306
309
320
318
317
318
318
307
317
338
354
322
324
329
331
340
342
350
368
377
389
384
352
317
298
290
296
297
300
305
309
311
318
320
317
320
320
323
256
418
370
325
316
321
322
332
335
346
354
377
382
387
368
328
304
299
296
306
296
301
313
311
309
314
327
321
323
325
324
283
400
381
341
325
327
330
335
333
351
360
373
384
393
387
346
315
303
302
301
299
301
303
308
315
311
321
321
323
320
320
327
275
430
376
344
328
325
338
338
328
351
350
369
374
380
378
344
317
295
298
296
301
309
312
315
323
327
317
317
322
326
253
433
387
339
324
323
328
334
341
350
364
368
386
393
376
336
301
296
296
295
299
306
307
313
310
320
316
315
319
322
295
329
371
350
320
323
324
325
326
341
344
361
378
388
387
344
312
300
296
296
306
304
308
310
309
315
321
320
318
322
327
255
432
379
327
328
323
324
329
335
343
355
373
381
388
369
333
302
295
294
294
296
302
298
304
307
307
311
316
318
315
318
319
262
386
364
324
316
326
325
328
336
344
357
374
386
391
371
329
303
296
296
298
303
307
312
310
311
319
318
319
322
324
324
255
432
381
327
327
328
335
334
336
348
360
370
386
385
372
333
311
301
292
301
307
297
306
307
315
314
315
315
321
326
324
324
331
260
434
377
333
325
328
332
334
334
346
360
370
387
386
380
344
316
306
300
301
304
306
310
309
312
314
317
319
314
317
324
318
259
399
374
332
326
333
334
340
338
354
356
378
384
395
372
334
308
304
298
300
307
309
311
308
311
314
312
315
321
320
326
321
328
291
373
381
343
330
329
330
333
338
348
355
367
382
388
388
352
318
300
306
297
307
308
314
309
313
311
319
313
316
318
322
323
326
327
291
368
359
344
329
320
322
327
331
336
350
363
378
384
385
358
316
302
298
302
297
302
308
301
310
313
315
318
319
320
318
322
326
260
438
380
326
324
326
327
326
340
348
356
369
383
387
379
339
302
301
298
293
302
303
308
311
307
313
312
306
315
320
321
326
322
273
425
386
341
329
335
334
335
341
343
359
371
387
387
385
346
317
298
297
300
305
309
313
304
311
310
315
311
317
319
321
324
328
305
344
369
355
323
327
324
329
336
340
352
361
376
381
385
357
312
301
296
295
305
298
307
306
312
311
314
314
314
321
321
320
322
294
374
360
348
326
323
323
335
330
339
354
370
377
390
388
357
323
300
297
299
304
304
307
312
314
311
311
317
317
325
319
327
320
302
357
368
327
330
332
334
337
345
352
370
378
390
389
362
324
302
298
294
303
296
303
307
309
312
314
315
313
321
321
322
329
288
368
379
346
324
325
323
333
335
342
352
365
382
386
387
360
318
307
305
299
302
305
303
309
314
317
320
317
323
320
326
328
324
328
264
435
378
332
335
332
334
344
342
350
360
369
389
388
386
347
317
301
304
296
299
302
307
311
313
311
320
318
320
321
325
321
320
279
368
360
321
321
326
326
332
338
351
360
375
381
386
362
329
301
294
292
296
305
297
304
311
305
315
311
311
320
316
322
321
320
298
339
371
341
321
318
323
321
329
332
340
356
371
386
381
351
314
305
290
293
294
294
302
303
305
313
318
313
315
318
321
315
314
322
267
432
378
330
322
322
334
329
333
340
354
369
382
386
388
347
312
304
295
297
297
306
309
306
308
319
318
323
323
327
333
278
413
366
344
326
322
322
332
332
342
354
366
381
389
381
340
313
292
300
287
294
295
299
304
298
305
309
312
315
319
316
315
258
397
368
318
322
327
324
328
334
344
362
374
388
397
366
325
306
297
293
297
301
300
310
310
317
313
317
318
322
320
329
307
362
347
354
322
325
331
331
334
346
359
377
391
392
386
357
319
301
301
300
304
303
312
318
312
320
320
318
323
322
301
343
358
352
329
322
322
329
328
341
346
369
374
388
373
341
311
293
296
297
292
301
307
310
310
313
314
316
315
318
267
411
382
335
323
323
327
331
334
344
359
368
381
393
378
343
304
300
296
298
299
303
304
308
313
314
318
321
321
316
302
332
361
323
336
326
331
340
349
358
371
381
394
383
354
318
298
301
300
308
296
310
312
308
317
325
322
325
322
329
265
419
370
325
323
327
325
330
345
347
362
382
391
396
374
334
307
305
300
296
302
300
296
308
307
313
316
319
322
329
255
400
369
321
323
334
322
334
344
352
371
377
384
392
370
331
310
290
299
303
300
303
315
308
315
315
316
314
322
258
426
376
329
322
316
327
330
336
344
353
369
386
389
369
330
302
293
297
295
301
303
307
318
317
318
319
320
324
263
424
374
334
324
327
330
332
336
344
359
375
382
384
368
324
306
294
292
291
295
294
314
310
303
308
314
308
272
353
356
318
320
320
323
335
338
356
370
384
387
387
357
321
298
299
299
300
303
317
324
318
314
318
323
287
358
369
347
326
324
326
332
334
343
367
363
390
395
382
335
304
308
306
304
305
303
316
316
316
309
317
315
282
377
367
340
314
320
324
332
332
346
354
370
385
385
376
333
312
293
292
289
290
297
312
309
309
306
310
310
250
419
369
321
315
316
318
322
333
337
352
366
384
379
353
319
297
285
292
288
294
303
311
314
307
311
310
315
251
425
385
330
320
324
328
325
336
346
359
378
386
392
362
323
307
296
298
295
300
301
307
319
314
311
314
322
318
274
355
361
318
317
317
329
327
342
356
366
378
383
384
349
313
298
302
287
287
297
307
305
302
309
304
314
258
414
361
329
317
320
329
335
340
348
366
373
382
391
367
319
304
298
298
299
304
309
323
315
308
317
314
303
307
362
352
317
322
328
326
334
340
352
368
378
388
379
341
304
295
293
294
298
302
299
321
313
307
313
317
316
261
390
368
323
327
329
328
337
338
355
373
383
398
398
354
319
299
297
305
302
300
311
311
322
327
324
323
318
322
261
387
370
318
331
318
336
332
351
354
365
385
398
393
360
329
303
297
298
301
302
312
311
323
314
319
315
317
292
380
357
352
327
331
332
335
343
353
360
375
389
389
376
328
311
304
305
293
318
303
291
311
306
321
316
300
327
311
261
413
373
335
314
329
329
326
336
346
352
371
378
387
385
334
307
295
299
297
303
302
305
315
314
317
320
323
325
278
392
367
347
322
321
332
326
328
342
353
368
383
389
377
332
305
296
293
297
300
297
309
311
314
310
316
315
315
319
256
394
366
318
323
314
325
341
331
358
351
373
413
387
345
322
303
297
293
297
292
306
305
311
303
314
311
311
312
304
310
347
348
314
317
325
322
327
334
354
361
380
378
378
341
311
295
290
300
292
296
308
305
305
315
321
320
315
318
322
272
409
384
337
322
317
326
331
337
345
359
374
380
384
375
339
304
299
288
293
298
298
305
308
308
312
320
316
314
318
320
271
356
363
320
323
327
333
325
337
348
360
371
386
388
356
316
295
297
297
304
307
316
313
311
312
320
329
321
323
323
322
300
375
360
331
328
330
338
332
338
353
364
379
388
384
356
316
297
288
288
289
292
296
300
298
307
315
311
309
308
323
266
341
350
321
326
321
332
335
345
355
364
378
389
383
363
324
301
304
303
307
309
306
310
319
313
319
316
320
326
254
424
377
330
324
332
325
330
338
348
359
371
383
383
358
319
294
290
289
296
293
295
299
308
310
313
317
319
324
275
353
365
328
328
327
335
335
353
353
370
386
385
390
362
320
308
297
305
301
315
311
315
322
320
318
317
322
263
420
387
335
324
326
328
337
336
341
359
368
387
385
374
330
303
300
301
303
297
305
309
303
315
315
323
320
323
324
284
375
380
340
325
322
327
325
332
337
359
367
381
386
376
336
304
295
295
300
295
305
303
304
311
304
308
320
316
317
320
321
262
376
361
320
327
321
328
329
334
339
356
366
375
385
353
314
296
290
290
289
295
299
304
301
302
310
311
318
317
314
320
270
414
366
338
323
326
329
332
334
347
361
374
378
384
378
345
312
306
305
305
303
308
309
317
313
318
325
323
325
330
321
259
427
380
331
331
331
331
336
341
349
362
379
387
395
373
331
308
297
297
303
307
316
313
318
310
312
315
319
317
317
324
287
387
360
347
324
321
324
327
331
345
362
370
379
386
379
340
312
298
298
301
296
300
310
306
306
312
315
318
314
317
327
291
374
351
353
326
324
328
330
335
347
360
368
381
382
378
342
315
299
298
308
311
307
317
311
320
305
316
321
322
327
325
325
258
412
372
326
325
326
329
335
338
345
354
367
376
379
356
324
299
288
288
295
289
299
296
298
302
303
306
312
312
313
315
294
352
327
348
315
321
327
324
332
341
352
367
377
384
382
351
314
300
297
301
302
309
309
311
312
316
318
317
318
324
297
351
370
349
325
323
325
328
335
341
353
368
378
382
375
338
301
293
292
293
294
296
301
303
307
310
308
314
319
319
322
324
314
298
375
359
317
321
324
326
333
341
352
370
378
389
387
360
321
301
300
302
302
305
311
311
315
315
316
310
314
324
321
320
326
327
258
404
375
326
326
326
327
328
337
346
358
373
378
382
368
331
306
296
301
293
296
303
308
303
311
309
314
318
321
328
321
326
307
361
337
357
326
330
334
336
343
347
358
369
381
388
387
360
317
301
295
301
299
301
303
308
308
311
307
315
313
315
319
247
441
386
323
318
320
322
325
330
339
351
365
381
381
369
320
295
286
285
287
289
297
297
302
307
308
306
311
316
320
318
320
328
253
434
383
328
328
330
327
333
338
348
362
375
390
395
378
337
309
303
302
302
306
307
312
314
314
316
320
318
321
327
327
327
329
330
262
409
376
328
330
327
332
337
341
351
366
380
389
397
372
331
306
304
301
300
301
305
308
311
313
312
316
313
317
319
323
323
323
329
329
256
397
370
327
323
325
329
330
340
350
358
372
373
384
370
331
305
294
290
294
298
299
306
309
310
310
309
314
317
317
319
321
325
256
426
382
332
330
331
331
334
337
344
362
374
379
387
374
336
305
302
298
302
301
304
307
310
312
313
310
312
321
323
323
327
326
258
412
379
327
331
333
333
336
341
350
361
379
387
389
369
333
301
296
297
300
299
303
307
309
309
310
312
310
316
320
319
317
318
295
348
348
348
318
321
322
323
330
338
346
360
369
383
378
352
314
297
292
297
296
298
301
310
309
315
318
313
322
320
324
323
324
310
349
337
360
331
333
333
340
341
349
359
371
381
389
392
365
324
304
301
301
303
307
308
313
313
316
317
319
319
319
324
295
363
379
355
323
326
326
333
334
346
356
372
387
394
385
347
308
297
293
292
296
299
304
303
308
310
309
311
311
310
317
318
321
322
322
296
348
385
351
324
325
325
330
331
338
351
363
378
383
385
354
315
297
295
294
298
299
301
307
310
309
310
313
309
312
320
320
322
325
324
262
391
366
318
322
326
325
331
336
347
360
373
383
388
359
322
296
287
289
290
295
298
299
302
301
301
304
307
307
313
317
322
316
320
283
387
347
349
322
323
325
332
339
346
356
370
381
388
385
363
324
311
306
304
307
312
312
315
319
316
323
324
326
326
324
332
270
435
398
346
330
332
335
338
338
347
361
372
389
396
387
342
307
295
293
298
299
305
305
308
307
309
310
313
320
320
320
327
325
249
432
379
322
324
327
327
336
337
348
361
378
388
392
373
330
304
297
298
300
300
303
309
310
314
313
315
313
316
320
323
325
322
330
293
356
385
346
323
327
326
329
335
339
352
369
378
386
386
357
311
297
293
294
299
301
303
307
309
308
312
314
309
319
321
321
324
327
320
284
366
362
320
326
321
322
328
334
343
359
373
378
384
364
322
300
294
294
297
304
304
305
314
308
313
311
317
324
318
318
320
325
271
400
400
336
326
325
326
328
330
339
353
369
382
392
386
352
312
301
297
299
299
302
308
315
317
321
317
319
322
324
323
324
328
260
429
388
336
329
324
327
331
335
342
355
370
378
384
373
336
304
287
290
285
287
286
291
290
295
290
300
300
302
309
302
305
285
362
311
341
314
315
322
328
337
341
351
367
374
387
386
363
323
306
305
305
310
316
317
321
320
324
327
326
327
332
331
252
456
393
332
330
330
334
336
341
353
364
378
388
394
376
333
306
298
299
301
300
303
307
310
313
319
314
318
324
313
294
367
358
321
326
327
330
333
341
354
368
382
391
388
353
313
296
293
296
298
301
305
306
308
310
309
310
309
311
318
319
321
324
324
245
415
375
320
323
324
324
326
333
342
356
371
381
385
374
335
308
298
295
297
301
303
307
309
308
311
312
314
309
312
321
319
319
326
320
280
370
369
325
331
331
331
336
344
354
365
379
388
397
375
333
305
293
293
294
297
299
301
305
304
309
312
314
318
321
320
254
432
393
337
330
332
338
339
347
355
368
385
393
395
385
343
308
302
297
302
302
308
306
313
310
310
313
317
319
320
323
320
277
361
368
320
325
327
329
334
342
348
367
377
389
387
365
324
302
295
293
296
298
304
306
309
311
312
316
314
317
320
286
371
384
345
324
324
328
331
335
344
354
372
388
394
382
345
305
291
287
295
292
295
299
304
307
307
308
311
309
315
315
316
317
324
244
426
383
319
321
321
326
327
334
345
359
371
382
386
375
336
303
293
295
295
294
298
302
305
308
307
306
310
311
313
313
317
318
246
433
390
323
320
319
324
325
333
341
355
370
379
384
375
340
307
296
298
298
301
303
305
309
313
313
315
313
318
318
320
323
325
328
249
443
389
328
326
329
331
332
336
347
360
373
385
394
384
346
311
301
301
299
303
307
308
309
310
312
316
318
320
322
323
320
268
381
364
320
320
320
324
329
336
348
358
372
381
382
359
316
292
286
289
292
295
299
297
300
299
297
303
305
308
306
312
303
265
394
347
333
314
314
320
323
329
335
349
367
372
382
387
360
324
294
300
302
301
303
308
310
312
319
316
324
328
326
331
333
336
257
456
415
341
336
336
339
345
347
357
365
381
390
399
387
350
312
298
299
304
304
307
310
314
312
314
317
319
320
322
320
322
262
408
400
339
325
322
324
324
331
343
352
370
383
390
388
348
311
296
292
297
301
305
308
313
313
311
315
316
315
315
317
323
323
326
327
317
286
404
370
324
329
329
330
332
343
349
364
381
386
390
374
334
303
296
296
298
298
302
303
306
303
306
309
303
302
308
307
307
311
308
260
342
356
311
312
314
318
324
334
341
354
369
378
384
373
330
299
294
294
298
301
306
305
310
314
314
313
317
323
324
322
327
311
308
405
362
326
323
326
326
333
339
353
365
380
388
388
360
316
297
294
294
296
297
300
301
308
310
308
312
316
312
316
320
315
319
327
321
274
401
415
334
323
325
326
324
333
338
353
368
380
385
387
358
315
297
297
298
302
301
309
310
314
312
318
315
314
314
322
319
321
329
327
257
432
397
333
321
325
329
334
340
346
361
371
379
385
381
350
311
296
291
292
298
301
307
309
310
309
311
317
324
320
322
325
326
244
436
398
333
330
331
332
333
342
350
362
378
391
398
386
342
307
297
297
298
300
303
304
308
310
307
310
310
311
317
314
318
319
323
238
427
392
322
319
322
325
330
331
345
357
370
382
391
383
344
306
296
294
298
302
301
307
311
314
314
314
313
318
320
320
325
323
266
411
377
341
323
325
328
330
334
344
355
372
381
395
392
357
316
297
295
295
295
301
308
310
311
313
320
322
328
329
331
256
436
399
333
325
325
331
335
336
351
365
380
391
399
386
335
305
295
296
297
300
301
304
308
307
308
309
315
315
319
319
307
273
384
358
314
318
317
322
325
334
343
357
376
387
389
359
317
297
293
293
296
301
304
309
311
308
311
320
318
319
318
324
243
402
378
317
318
321
321
325
332
346
362
373
385
387
366
321
297
287
285
283
288
293
291
296
295
306
302
309
312
312
240
409
374
323
320
324
330
332
340
349
363
380
390
396
380
336
303
298
297
298
304
307
309
309
315
311
319
317
322
326
325
264
409
376
326
328
328
332
332
337
350
362
380
392
392
367
321
302
296
297
296
296
295
301
301
306
311
314
319
313
322
269
386
399
335
317
316
321
325
329
338
353
373
381
395
381
342
304
290
287
287
289
291
289
297
295
308
309
307
309
311
248
417
370
329
317
320
321
328
332
339
359
377
390
400
383
338
309
298
298
302
302
309
313
313
315
319
318
313
328
333
246
416
369
319
338
329
325
339
335
351
362
377
384
392
364
316
295
293
297
299
306
306
311
311
318
323
320
322
333
334
259
390
376
325
330
326
331
332
338
346
368
383
387
392
362
317
300
289
286
285
294
303
309
311
298
306
305
307
339
260
358
379
323
328
333
313
335
348
354
361
376
404
388
357
332
310
291
311
297
295
308
304
316
313
303
314
321
326
249
411
404
314
320
322
326
325
326
334
356
364
384
388
372
334
298
287
293
278
286
299
291
295
297
305
306
326
304
257
409
375
332
320
323
314
325
339
341
363
368
384
395
383
330
301
294
299
306
301
308
296
303
309
313
322
332
326
333
246
431
369
346
315
329
331
332
334
351
377
382
384
405
362
324
303
299
286
296
307
305
297
304
306
324
313
335
309
284
399
403
313
307
326
298
349
318
339
328
359
373
391
376
334
342
298
288
266
308
298
301
280
285
313
300
316
317
226
384
372
312
335
302
310
358
326
350
362
376
398
399
370
339
296
303
311
284
310
313
300
325
333
321
317
331
264
419
411
349
336
328
324
344
325
351
358
376
390
398
374
343
300
288
292
299
294
296
308
327
312
312
301
294
249
372
364
313
307
308
317
330
338
349
359
369
406
394
347
303
306
316
281
288
315
302
324
316
313
322
310
233
346
369
309
305
315
312
323
329
347
365
380
384
389
346
332
289
298
304
290
303
318
310
319
316
309
322
267
346
366
319
329
327
335
333
347
366
362
383
400
388
360
306
305
309
305
302
304
322
328
322
325
313
312
300
372
369
329
325
323
324
339
331
357
376
392
398
377
345
303
297
292
295
291
293
312
290
298
301
288
246
388
362
308
308
305
326
320
313
324
342
361
372
379
347
301
282
289
280
305
302
306
296
308
306
314
284
351
363
338
321
314
325
323
343
346
357
379
391
398
380
331
308
296
306
296
302
318
313
306
317
327
314
273
363
363
333
320
321
332
334
350
357
380
393
412
380
338
299
303
296
296
299
296
320
304
299
305
312
314
285
340
351
310
323
313
330
319
337
338
360
374
393
372
331
298
301
288
278
294
292
293
300
304
309
309
275
389
368
346
321
323
324
334
333
347
364
383
395
407
379
336
305
299
298
302
307
309
331
312
316
319
319
304
321
385
352
323
329
332
327
331
353
354
377
386
400
397
335
312
293
303
295
305
298
309
310
318
312
325
309
319
254
390
348
318
318
322
322
322
340
337
366
377
387
380
344
298
289
278
289
276
280
289
293
294
299
295
299
302
238
345
348
308
307
311
317
319
329
341
361
392
384
392
361
331
291
291
290
307
295
311
322
325
309
319
320
324
244
433
396
326
331
328
328
331
334
350
366
384
389
404
377
326
303
296
296
291
296
302
309
305
324
319
321
318
324
256
412
401
332
326
324
329
336
334
340
361
373
382
399
387
337
304
294
293
289
294
301
302
299
301
308
312
318
304
316
236
411
393
313
313
307
336
312
328
338
358
371
381
394
364
328
298
294
288
290
293
301
312
313
315
318
323
312
325
308
297
386
359
325
324
324
330
330
342
352
372
394
394
397
361
317
297
297
292
304
299
302
305
304
309
320
314
319
311
324
244
433
398
327
312
316
326
321
332
337
353
376
390
395
372
335
294
294
292
301
300
301
309
304
305
307
324
319
316
320
323
261
401
403
337
319
310
320
332
329
333
349
385
379
409
382
340
313
285
285
276
279
294
283
295
302
310
306
309
312
318
313
242
382
372
324
331
326
326
337
342
362
376
389
404
398
365
338
307
300
296
305
308
311
318
317
317
329
329
319
319
326
288
362
409
351
324
324
320
327
339
346
353
370
386
415
379
346
308
299
294
297
295
302
302
306
315
312
326
330
312
322
319
301
321
384
344
316
320
325
326
336
342
358
362
380
392
380
340
320
285
290
288
287
287
297
302
309
303
309
303
307
310
316
245
429
386
331
323
324
332
331
342
352
361
386
393
404
383
342
312
301
292
309
304
305
319
312
323
327
318
323
322
327
233
427
397
323
320
323
335
328
338
348
365
376
398
393
368
326
303
301
288
299
298
292
304
312
305
315
317
314
309
313
320
244
421
401
328
321
311
317
322
326
339
356
361
388
388
375
326
301
295
289
284
291
292
286
302
303
306
303
311
305
305
308
306
240
425
382
321
314
323
324
330
338
349
363
380
401
403
377
341
308
302
295
295
307
302
323
311
318
311
325
326
315
319
323
317
241
425
389
325
321
327
327
328
336
345
366
369
387
390
368
320
307
291
284
283
289
287
295
293
291
297
297
304
317
307
299
316
303
286
325
344
332
310
317
321
320
323
338
359
359
387
390
399
352
321
298
306
298
313
308
319
314
322
338
326
326
331
330
332
259
427
391
333
337
328
340
336
345
362
375
384
399
407
371
325
298
295
299
302
296
305
312
327
306
313
334
318
320
327
323
315
268
405
360
316
317
319
326
332
335
353
361
381
395
382
361
313
298
291
289
295
290
294
300
304
306
304
306
310
306
306
304
307
227
417
371
305
310
315
313
319
327
345
358
364
396
381
363
339
303
300
300
299
300
301
313
300
320
318
317
331
320
313
321
324
231
458
401
321
320
320
332
334
341
337
360
382
384
394
375
341
308
299
292
297
295
303
296
304
310
314
321
323
321
308
322
328
312
307
387
361
322
322
333
333
342
346
358
373
392
392
388
359
322
303
300
323
296
311
299
314
320
314
310
319
327
322
317
320
324
249
389
373
314
321
325
324
334
344
339
360
378
384
396
356
323
304
290
296
294
295
296
302
313
302
307
321
320
325
315
320
288
374
368
321
326
320
326
342
344
351
369
383
396
389
356
314
296
290
302
299
299
310
305
313
304
316
316
316
328
319
323
240
428
397
325
335
321
331
336
336
345
364
374
386
396
365
325
302
298
295
295
302
299
301
310
304
308
309
312
315
316
319
241
419
381
324
315
316
317
324
326
332
356
367
375
389
371
331
295
290
292
287
304
296
309
313
318
322
310
327
320
322
331
331
249
448
400
330
341
325
329
337
344
349
366
378
397
401
371
344
295
296
287
296
304
298
304
306
315
301
318
321
319
323
315
307
280
376
347
318
316
322
322
331
342
356
365
380
388
387
354
311
298
285
291
292
287
294
312
296
299
316
306
307
312
309
309
239
432
370
310
317
306
316
315
325
338
344
368
377
381
363
322
303
294
288
296
291
292
300
299
317
315
320
318
321
324
251
426
385
337
327
327
344
338
346
358
369
387
399
398
373
332
317
301
301
302
303
309
317
321
320
322
329
318
322
324
252
421
382
323
323
322
328
324
334
352
359
377
386
386
352
308
293
285
286
290
290
294
299
300
301
299
313
314
311
309
314
242
427
379
328
332
330
327
331
343
345
364
374
378
385
361
328
295
285
274
281
282
285
287
299
297
310
309
315
314
317
294
374
360
354
326
331
334
342
348
355
366
384
391
399
396
360
330
309
308
307
318
316
318
321
325
332
331
335
332
319
288
405
369
329
330
333
330
337
346
354
374
390
399
385
349
307
296
293
293
289
298
302
305
299
310
308
316
314
315
319
257
412
407
335
317
319
319
326
333
338
355
370
383
386
371
329
296
290
289
285
286
294
287
298
298
297
302
313
308
311
312
317
238
425
395
332
315
319
325
327
336
353
361
382
390
393
383
338
305
298
298
298
304
303
312
312
315
313
319
323
327
330
329
324
274
408
369
322
322
329
329
335
338
351
372
375
387
383
357
314
292
288
288
288
294
298
300
303
299
304
304
310
311
313
312
259
350
360
313
322
321
323
328
341
349
374
387
392
389
358
321
298
296
295
300
302
310
313
315
314
319
321
327
325
328
317
281
389
367
321
326
326
328
336
339
352
366
382
393
387
351
311
294
290
293
296
298
302
306
307
307
313
316
312
316
314
298
313
384
350
317
317
320
323
327
336
349
364
375
385
378
341
305
289
289
289
292
295
304
301
308
314
313
314
315
318
252
427
395
334
323
321
326
328
334
342
360
376
386
392
375
332
301
293
290
291
289
297
297
300
304
302
303
304
308
243
342
344
298
303
297
308
316
321
332
349
362
373
375
344
310
290
286
287
289
298
301
307
313
312
313
322
320
259
375
372
325
329
329
334
339
348
361
380
396
404
403
368
331
309
307
304
308
313
320
331
324
328
334
333
321
295
389
368
330
327
331
337
343
351
366
384
398
401
392
350
313
302
300
301
305
307
308
309
313
316
315
319
322
250
429
406
328
317
318
320
324
332
341
354
373
386
392
367
323
297
292
291
291
294
295
299
301
303
307
310
313
315
317
316
236
407
370
315
316
316
320
322
330
346
361
374
383
380
354
308
291
288
288
292
296
298
305
304
307
307
307
310
314
316
316
322
304
319
369
350
319
321
324
327
334
341
354
366
379
388
382
354
319
298
293
297
295
303
310
312
315
315
313
322
326
328
331
327
290
389
384
337
342
342
347
352
360
375
387
398
405
404
372
326
306
302
306
306
310
314
316
319
318
315
314
317
319
320
321
323
236
434
387
320
320
320
320
323
327
338
354
367
378
382
358
317
287
282
284
286
288
289
295
294
297
299
299
299
304
307
306
308
311
234
428
391
316
311
313
314
318
324
336
351
366
374
383
368
331
295
284
283
287
289
294
296
301
303
301
300
311
309
312
317
317
242
387
374
323
327
328
334
340
347
361
375
391
394
399
373
335
310
302
307
308
312
315
320
319
318
318
317
325
323
327
327
332
245
452
399
331
327
327
328
330
336
347
358
375
387
392
370
327
299
288
290
290
296
295
300
303
305
306
304
305
311
314
314
316
318
256
407
403
334
319
320
319
324
329
336
355
369
382
387
378
339
304
290
291
295
298
301
304
308
311
313
314
314
315
321
322
321
324
297
357
382
354
319
323
322
325
328
340
352
365
380
383
379
344
304
285
275
281
283
284
286
294
281
287
288
294
295
300
306
302
236
357
359
309
314
315
321
326
337
352
368
378
387
393
372
332
307
306
308
307
313
316
317
320
319
321
326
332
332
333
336
333
282
422
382
336
339
337
341
346
348
361
373
394
406
402
371
324
303
297
294
301
302
306
310
312
313
315
319
323
322
322
326
273
398
414
340
321
324
326
329
334
341
354
374
385
391
380
339
300
292
288
292
293
297
301
307
309
309
312
311
310
310
317
319
320
322
325
234
443
386
321
323
327
322
331
336
347
361
380
390
396
377
329
298
293
293
296
293
298
301
307
308
313
307
309
315
316
318
316
315
305
298
372
358
315
319
328
324
337
339
352
361
380
388
393
359
320
300
292
297
297
300
308
312
318
321
320
323
324
324
332
328
338
295
385
415
363
338
336
333
337
345
354
361
379
396
406
392
359
314
304
302
301
303
308
307
312
312
310
310
313
310
318
318
323
324
316
250
408
368
320
328
319
329
323
335
348
364
375
387
392
363
321
293
292
292
291
290
293
295
297
303
299
303
300
296
303
304
312
298
302
292
256
327
342
284
292
295
304
309
336
340
332
360
372
370
349
312
283
293
283
304
305
293
310
320
308
363
340
289
293
339
339
326
241
386
352
321
309
308
325
329
342
333
346
366
373
375
353
327
307
309
298
310
308
317
310
301
310
311
312
310
316
319
319
322
324
323
265
395
361
321
324
326
326
334
336
347
360
375
381
384
364
320
311
296
299
302
308
310
312
313
316
316
319
318
318
326
329
327
320
329
290
392
353
343
329
332
339
342
337
355
360
371
389
391
398
368
324
307
316
317
313
309
312
318
319
307
324
330
323
322
330
333
289
400
388
352
336
334
336
343
352
360
370
391
395
403
405
366
329
318
313
313
314
322
321
323
321
325
325
324
323
321
327
253
423
373
326
312
311
316
315
324
333
343
351
366
373
359
317
296
282
280
280
284
284
286
293
294
299
296
305
308
290
325
320
344
314
320
322
327
334
349
356
377
380
392
383
356
319
307
306
305
308
313
310
313
319
318
317
323
321
327
267
434
395
338
331
326
332
337
339
351
356
375
376
394
377
335
293
283
273
269
268
274
272
276
267
279
274
284
285
302
297
238
393
357
321
326
317
333
337
347
364
370
383
394
404
387
357
319
313
318
320
317
323
325
329
328
337
322
327
335
277
424
401
343
328
326
333
331
346
350
363
373
387
396
376
338
304
298
300
304
303
304
305
304
305
312
315
313
319
315
312
253
395
356
313
317
323
320
322
335
339
352
370
375
381
354
309
294
282
288
290
291
292
300
294
303
297
303
304
312
307
306
312
293
314
353
339
310
314
316
319
327
331
346
353
370
374
374
353
310
294
293
283
293
298
299
304
310
305
303
313
317
319
322
319
312
296
355
356
323
325
325
329
337
343
353
366
380
388
379
358
324
300
301
301
304
304
309
305
310
310
314
318
319
317
322
320
321
252
395
372
325
320
323
321
328
338
343
357
371
379
378
371
323
295
288
291
293
292
297
297
299
299
307
305
312
310
315
323
305
311
338
357
323
322
323
330
331
345
352
370
378
384
379
357
317
297
298
301
306
306
316
314
318
317
317
319
328
321
324
326
264
395
372
330
330
334
336
337
341
359
369
388
392
389
368
332
303
295
293
301
295
301
304
310
309
309
304
310
310
311
315
277
392
357
336
310
315
320
324
326
346
351
366
379
384
378
349
312
303
289
304
300
309
300
314
314
322
313
321
333
323
249
407
379
325
322
329
329
330
343
351
363
378
391
389
366
329
301
304
298
299
302
300
311
311
308
310
311
319
318
318
320
319
255
411
370
319
324
323
323
329
342
348
359
372
386
386
363
325
301
295
294
297
301
295
302
302
302
309
311
306
306
307
314
312
317
314
318
255
380
360
314
322
316
321
326
337
340
353
369
375
383
364
316
297
290
289
293
297
302
298
304
303
312
301
299
305
304
305
307
311
314
255
386
359
315
311
313
317
325
330
344
350
367
377
383
364
327
305
293
294
301
298
297
313
304
317
314
321
322
320
320
328
326
274
380
371
332
333
335
334
347
347
361
379
383
390
396
366
329
307
307
304
304
315
316
317
317
325
330
318
321
323
325
327
319
338
293
373
380
348
324
323
332
327
340
346
352
363
381
381
389
348
313
302
291
293
293
297
296
303
303
304
303
306
309
312
310
318
316
246
421
362
323
321
319
322
328
333
341
353
368
378
385
372
341
307
298
294
298
300
306
304
315
302
306
308
308
312
326
317
318
316
280
370
376
344
319
321
323
324
330
332
346
358
368
384
366
336
304
284
284
285
280
283
288
292
295
293
296
297
301
307
302
305
304
280
332
354
333
308
312
312
313
325
327
339
354
375
380
375
347
305
297
291
290
292
293
300
304
307
318
314
315
316
319
321
329
322
266
428
378
338
330
337
335
338
352
359
377
387
402
404
397
355
331
312
317
312
316
323
323
331
325
334
332
334
337
343
281
442
399
352
339
337
339
339
340
359
369
388
398
394
387
334
310
304
299
303
296
301
302
307
314
312
311
318
321
268
372
376
336
310
311
309
315
317
335
321
367
362
376
359
319
291
248
264
259
262
260
261
254
273
277
269
274
270
212
378
337
285
298
280
289
301
311
317
335
347
382
381
355
305
294
299
291
285
294
298
307
314
314
326
312
330
338
268
417
419
331
331
341
321
343
348
350
370
388
411
407
390
360
315
314
314
313
317
323
313
326
324
329
324
330
321
260
417
392
333
339
336
324
334
337
341
359
376
389
397
363
324
309
289
275
284
290
297
299
311
319
308
308
321
278
379
382
347
324
314
323
319
336
339
347
365
384
402
383
340
299
288
286
290
283
295
302
305
302
304
303
309
290
308
372
338
316
307
319
319
324
334
348
368
382
385
387
350
306
297
289
294
298
302
297
308
310
316
315
320
319
247
389
372
321
326
321
329
333
341
347
364
384
397
398
371
328
300
293
293
292
295
303
304
311
316
310
314
308
309
258
404
375
329
311
313
315
322
325
336
352
366
383
393
382
341
309
295
288
288
299
290
299
304
312
315
312
308
315
294
307
374
344
310
315
314
322
317
328
340
355
372
381
379
344
297
279
272
275
272
275
277
285
285
298
292
291
293
295
281
282
362
323
294
304
293
293
306
312
324
336
353
366
367
344
295
274
276
268
272
280
286
291
295
301
314
323
309
311
321
320
247
421
376
330
336
334
341
345
352
368
387
399
416
419
405
361
332
319
323
309
308
315
318
320
326
315
333
324
319
321
323
295
343
326
347
323
325
323
330
334
345
361
377
387
393
402
378
336
312
300
305
300
308
312
309
311
324
322
320
313
321
303
316
377
351
316
319
318
326
329
334
348
362
376
387
382
356
312
292
285
291
287
294
294
295
297
308
302
303
314
315
312
311
313
312
240
387
362
313
308
308
315
317
323
330
347
359
370
378
361
323
295
274
273
274
273
278
282
284
288
291
297
300
295
301
303
302
229
407
371
313
316
318
324
326
337
344
360
377
385
397
384
345
313
301
298
302
305
306
307
312
314
317
317
317
321
332
325
323
324
327
280
382
413
349
330
330
334
337
337
348
357
372
388
391
395
368
328
303
293
291
295
293
294
301
302
305
303
303
314
311
308
312
316
306
270
350
355
317
313
321
320
322
328
338
347
368
372
379
358
317
279
274
276
276
281
286
289
291
298
297
299
303
309
312
310
312
317
235
429
381
318
319
320
324
322
336
342
360
380
386
392
382
347
316
304
297
304
309
308
314
316
315
313
318
320
323
327
324
327
329
270
372
377
327
329
333
331
336
341
351
366
380
392
395
373
340
308
290
294
296
301
308
311
312
313
316
319
322
324
331
334
332
339
262
425
396
342
343
345
346
350
356
362
381
391
402
410
394
355
320
306
302
308
312
314
313
318
314
316
322
320
320
322
323
324
267
410
400
337
320
320
323
327
329
339
351
368
380
389
384
351
308
290
288
290
291
297
297
300
304
308
313
312
309
315
297
323
303
303
309
305
244
363
347
304
299
304
302
311
330
320
343
357
371
373
360
328
290
282
277
277
284
288
294
298
300
306
313
315
318
323
326
265
393
378
332
334
337
343
347
354
368
382
401
411
415
386
344
314
310
305
306
308
312
317
313
319
321
323
324
325
325
244
441
400
324
319
319
319
326
326
334
345
364
372
370
353
306
268
260
259
256
260
264
269
280
285
290
291
296
300
303
306
310
306
253
377
357
308
316
312
318
320
327
342
357
373
384
388
364
325
299
284
289
288
289
293
299
301
301
303
305
312
311
314
317
318
276
391
381
353
325
329
333
339
344
352
366
383
401
405
403
369
332
308
304
311
311
316
319
321
321
323
326
329
329
335
334
301
366
412
358
333
335
338
341
343
350
363
384
397
406
398
361
324
305
302
301
303
305
309
311
313
313
316
315
312
316
320
318
319
324
322
243
406
376
320
318
321
324
330
330
344
358
373
385
391
376
337
302
291
288
292
291
295
299
304
306
312
313
314
317
322
324
327
328
331
264
444
407
341
332
333
333
339
342
351
367
386
395
402
393
358
320
299
300
303
298
302
306
306
310
314
314
316
314
316
313
317
319
320
321
324
314
280
397
358
318
323
321
324
329
336
349
360
378
390
391
370
328
302
290
289
292
291
296
301
304
306
307
306
306
304
306
310
313
316
318
319
244
392
373
320
319
322
325
323
330
339
357
373
385
390
380
343
308
296
294
298
302
310
315
319
321
323
323
326
334
332
333
335
331
273
413
378
332
334
335
335
340
348
357
372
389
400
402
371
332
302
296
296
297
299
301
303
304
310
308
311
312
313
315
318
317
315
315
322
324
328
326
326
249
426
381
322
324
326
327
331
337
344
358
373
383
388
379
345
307
293
287
288
291
292
300
301
303
304
307
303
307
311
312
315
317
320
247
432
391
332
327
332
332
337
341
351
367
385
396
401
391
352
314
303
301
303
304
307
310
312
312
315
317
316
316
319
324
323
325
326
328
247
428
381
324
329
327
330
334
345
351
365
384
393
399
381
339
306
294
288
289
288
291
298
297
297
295
293
296
293
291
295
297
294
296
297
242
390
346
310
291
295
290
297
300
312
323
340
356
362
362
332
295
274
272
274
276
281
285
289
290
295
298
297
301
313
314
315
318
319
260
402
363
321
323
324
328
334
338
352
369
383
403
401
375
333
312
305
303
308
309
312
314
323
323
329
327
323
335
332
335
332
342
328
291
408
380
336
341
338
332
340
335
350
370
380
389
396
369
333
300
290
281
290
284
288
299
297
301
303
299
304
307
308
264
430
333
330
300
313
313
315
329
331
336
352
357
353
354
321
304
283
283
272
268
273
264
271
278
284
275
279
282
259
358
323
302
288
299
315
321
334
343
366
372
396
409
400
372
341
333
331
339
345
345
353
371
357
359
361
358
376
294
513
399
369
358
357
365
360
376
388
380
394
412
421
389
357
318
318
319
310
309
309
320
321
337
307
318
320
322
331
253
437
373
327
321
326
326
335
343
345
361
373
387
393
371
342
298
288
297
288
281
294
295
297
301
303
300
309
301
311
306
311
248
431
377
317
319
313
317
323
330
336
349
363
377
383
374
340
306
296
293
293
293
299
304
305
304
306
309
308
313
315
317
317
318
247
439
383
329
339
309
321
326
332
340
353
374
380
388
378
344
303
297
288
296
291
288
300
297
293
294
296
292
281
305
198
395
333
295
282
285
276
278
293
300
314
328
350
353
338
307
286
285
270
279
279
287
287
299
303
301
310
311
313
280
410
354
345
330
334
338
347
353
367
384
388
406
412
405
368
337
335
333
334
333
336
337
343
344
346
346
347
346
342
303
380
368
335
340
340
340
343
347
360
372
383
388
385
364
330
309
304
305
305
308
312
314
315
318
321
323
321
325
323
321
287
360
349
320
318
320
323
325
330
341
355
367
369
370
347
309
286
276
277
278
280
284
286
283
284
286
283
289
289
289
290
293
288
255
340
325
291
296
303
302
310
318
334
346
360
371
374
355
326
302
299
301
305
309
315
317
319
325
329
329
332
340
338
340
344
345
337
335
383
373
344
348
350
354
356
362
375
386
398
403
403
383
345
322
315
312
312
317
320
318
317
316
317
315
311
315
316
316
314
317
317
264
416
352
321
312
313
315
316
324
333
346
357
370
372
372
345
312
298
295
297
299
301
309
311
314
315
316
316
316
318
322
324
322
325
328
288
397
356
343
326
328
330
334
340
348
358
370
380
386
385
361
331
312
308
310
310
315
319
320
320
320
320
317
322
325
321
321
324
324
263
420
361
322
320
323
325
329
334
343
353
369
372
377
368
334
303
293
289
291
291
296
297
297
298
298
299
300
301
300
308
307
310
310
313
315
274
395
353
334
317
318
321
325
331
338
351
367
374
380
382
360
326
307
304
303
302
304
310
312
311
310
311
308
311
309
315
318
317
319
322
311
319
356
348
322
324
324
329
335
343
353
366
378
382
381
363
328
306
299
300
301
302
304
309
312
313
313
317
316
313
320
323
323
321
323
326
266
431
364
327
327
329
331
332
341
349
361
373
384
386
382
352
321
306
305
307
307
309
312
312
313
313
317
317
319
320
320
320
315
319
286
383
340
336
320
320
320
324
329
339
349
363
374
378
381
360
326
304
302
300
302
306
309
314
315
316
314
321
322
324
326
328
331
264
424
363
330
328
329
330
336
342
352
364
377
384
393
377
349
317
305
303
301
303
307
308
313
308
311
312
314
315
323
323
321
320
324
302
357
358
352
324
318
320
329
330
341
351
366
377
384
386
364
327
303
296
297
300
299
308
310
306
308
308
306
309
314
320
323
324
319
326
319
314
382
344
321
328
334
337
335
340
354
372
380
399
404
361
322
301
298
298
291
292
298
297
296
298
304
301
304
299
297
304
308
311
306
311
309
258
409
352
319
308
314
317
309
323
328
342
355
362
367
366
347
313
292
289
293
291
295
296
310
299
298
304
303
312
315
312
320
318
322
323
261
414
353
324
320
325
327
335
336
347
354
365
377
385
372
351
319
288
301
293
295
299
303
303
303
310
302
310
311
312
313
313
313
317
275
344
344
313
320
320
330
330
337
349
356
370
380
381
369
340
310
297
300
300
308
307
313
318
322
319
323
320
329
335
330
334
338
340
278
456
393
348
346
348
343
348
350
356
366
382
392
394
388
364
329
309
308
291
298
300
305
302
302
300
301
300
309
308
310
312
314
265
439
350
337
324
332
336
341
345
355
371
384
392
400
401
375
335
315
312
311
312
316
318
318
318
319
323
323
322
323
327
279
405
384
346
320
327
326
329
336
343
357
376
383
391
384
359
318
299
298
297
289
298
308
313
310
312
317
327
327
327
328
328
270
394
367
321
328
325
331
336
343
352
363
375
386
388
371
329
300
291
293
289
291
290
297
298
299
298
299
301
305
307
308
313
298
309
349
351
318
322
327
330
336
348
359
376
387
393
398
378
340
311
305
307
310
309
317
318
319
319
322
323
324
331
329
328
327
331
267
438
388
334
323
323
323
327
337
343
356
371
379
385
382
356
316
302
295
294
301
302
308
311
312
316
315
321
324
322
325
332
330
259
418
383
332
333
333
334
335
343
352
365
378
385
392
382
343
312
300
297
299
301
302
306
306
305
306
304
308
314
312
312
315
315
239
412
365
312
306
308
312
314
321
329
343
359
370
376
371
339
304
288
288
292
295
292
299
306
308
310
313
321
320
322
323
319
278
364
367
322
328
331
332
339
344
358
371
385
391
395
378
338
309
302
303
308
306
313
312
318
318
318
314
320
321
323
322
327
328
265
439
390
336
327
332
330
333
341
348
359
371
382
391
387
354
317
303
296
299
300
301
305
308
310
312
310
314
317
318
318
321
323
261
430
381
334
322
327
329
331
335
345
355
372
382
387
385
353
313
297
297
299
301
301
306
306
305
308
312
315
310
312
320
320
319
322
323
255
433
371
325
321
321
321
325
331
341
352
367
373
381
380
355
319
299
297
299
299
307
311
315
318
317
323
327
328
327
331
332
266
448
390
345
336
340
340
342
348
357
375
390
402
405
398
362
326
311
310
310
312
314
315
315
319
319
321
318
321
328
329
329
333
326
292
382
367
324
326
325
327
331
339
350
366
380
391
390
377
334
305
298
295
297
298
302
305
306
312
311
308
311
316
316
315
315
318
278
378
350
337
314
317
318
318
326
332
341
355
369
377
378
358
319
299
294
295
298
299
305
309
314
315
322
323
327
326
329
331
291
384
378
352
330
332
332
333
337
346
360
376
385
389
393
360
319
301
297
298
302
303
305
311
311
310
311
315
319
320
320
318
321
268
413
382
333
321
325
324
324
331
339
349
365
376
384
383
349
311
295
292
292
294
296
299
300
304
305
303
306
309
313
313
307
311
257
404
354
323
305
308
306
309
316
327
337
349
357
368
362
327
298
278
273
271
272
275
278
281
284
284
284
287
292
293
295
299
305
249
400
372
325
314
319
323
330
335
345
358
378
390
401
400
371
334
316
308
309
310
315
315
318
314
321
324
325
325
323
326
265
430
366
325
311
314
309
323
332
342
354
373
384
394
388
355
318
306
306
310
310
316
321
325
326
324
329
332
333
334
337
339
264
440
396
341
337
339
339
344
346
352
371
384
399
398
387
353
318
307
309
309
306
313
318
321
323
322
323
328
323
321
332
295
352
346
342
319
321
324
325
325
334
343
354
363
375
374
344
310
290
285
286
288
289
295
293
301
302
302
307
304
299
310
311
335
313
313
319
319
325
336
346
362
374
380
387
361
323
305
303
307
310
311
318
322
326
321
321
320
321
269
387
350
318
318
319
330
333
338
348
364
379
385
386
363
324
301
295
298
300
304
315
310
310
309
308
313
252
433
343
316
311
311
315
321
331
338
356
373
384
391
381
338
315
311
307
310
317
324
322
322
322
327
327
285
370
356
330
330
335
338
343
350
363
376
387
396
392
363
328
311
307
307
307
310
313
315
314
313
312
316
315
266
368
340
316
314
316
315
325
329
343
353
362
367
376
360
321
301
292
290
292
300
314
312
304
297
313
328
283
431
355
346
333
339
344
344
353
362
374
387
393
406
388
354
323
317
316
321
325
331
335
335
331
327
334
341
281
421
373
337
334
337
341
346
350
361
371
382
395
391
366
333
309
305
301
300
303
303
313
308
309
309
310
311
265
348
336
310
314
315
316
319
329
338
351
362
367
366
345
308
287
284
284
283
285
292
298
300
305
307
309
314
302
325
330
351
325
328
333
338
345
354
369
382
394
401
398
369
335
318
315
319
318
323
325
326
329
331
330
331
335
331
292
378
360
328
329
331
332
335
342
353
367
381
383
386
359
318
303
302
299
299
300
301
304
307
310
312
313
311
310
315
287
348
326
333
309
310
312
315
321
330
343
355
363
363
359
337
304
286
281
279
281
286
289
291
291
299
298
301
299
292
331
312
342
314
319
324
326
340
353
355
370
386
389
393
360
331
312
313
317
316
314
320
324
324
324
325
332
327
274
418
368
334
319
314
316
320
325
331
346
353
369
366
356
313
282
272
276
275
275
276
281
287
292
287
296
302
301
242
394
343
304
308
311
315
319
328
336
353
364
375
378
357
319
297
293
292
291
294
294
300
300
309
309
307
315
320
311
269
345
345
318
317
319
322
331
338
352
365
375
383
395
369
333
315
308
316
322
320
327
328
333
340
338
338
338
346
289
412
371
343
347
349
353
355
359
370
384
391
398
397
377
340
318
315
318
318
322
321
324
321
320
322
325
333
327
328
299
363
364
333
335
330
336
337
345
355
369
376
389
382
353
319
299
293
295
296
292
298
299
301
304
304
305
309
303
251
400
336
311
307
313
322
320
329
340
350
366
372
379
371
333
307
304
304
304
311
315
314
323
318
317
325
321
323
331
265
426
367
334
325
327
332
336
346
348
365
368
385
381
366
322
302
305
297
306
305
305
306
311
313
315
312
315
319
309
272
359
358
321
315
328
328
323
332
347
359
368
382
383
352
316
296
293
285
289
298
296
303
303
308
306
311
315
316
270
434
353
341
330
326
338
337
345
350
366
377
384
393
385
345
314
307
308
307
315
314
317
321
317
321
321
319
325
327
312
333
357
350
326
330
337
331
338
343
353
366
384
388
381
361
317
303
300
304
299
301
309
310
314
316
316
307
315
310
286
382
334
333
319
331
320
306
326
331
355
361
378
386
381
337
319
295
299
307
307
312
310
311
319
323
320
328
323
326
303
362
354
319
329
332
327
335
340
354
368
382
392
383
346
319
306
299
300
306
297
312
313
313
319
323
323
322
322
268
419
367
328
316
323
331
324
332
343
362
371
376
377
362
323
300
292
284
288
287
295
296
299
307
303
299
305
274
344
304
337
304
307
316
322
331
346
358
371
382
395
382
343
316
306
310
310
312
317
322
324
325
328
324
334
329
325
309
364
361
333
333
337
337
341
352
357
373
390
403
391
356
319
310
303
306
313
308
310
316
317
322
340
315
331
316
281
372
352
319
323
323
328
331
331
352
356
381
386
371
340
310
298
288
272
288
284
286
295
296
302
296
304
299
297
260
325
325
298
303
317
313
323
334
346
375
373
393
386
353
330
308
304
315
316
314
329
331
330
327
331
329
345
307
375
377
359
346
341
333
344
348
364
365
385
402
399
384
344
317
303
303
304
310
311
314
316
318
313
322
310
301
305
323
332
305
308
315
310
319
323
336
352
357
374
357
328
288
280
279
272
275
290
289
296
290
292
288
299
268
332
293
315
296
300
304
303
314
325
343
350
371
374
373
334
312
300
301
308
311
330
337
327
322
328
331
296
408
370
342
336
340
340
345
345
365
375
391
400
406
384
345
317
314
310
311
317
324
325
317
321
320
330
291
387
342
343
315
327
323
326
321
334
346
365
369
378
352
312
285
275
273
276
270
279
281
293
285
285
286
286
290
237
350
324
294
293
301
303
308
316
331
348
359
378
379
351
319
303
296
302
311
313
325
337
333
335
339
338
343
287
433
387
346
350
353
356
361
361
376
391
404
410
416
387
347
328
324
328
325
328
330
339
344
342
334
340
343
325
308
358
362
327
325
332
326
337
338
348
362
379
381
379
339
305
288
284
281
282
284
290
297
295
289
292
298
300
237
376
337
313
308
317
322
325
333
341
361
371
378
381
356
324
295
301
298
296
305
308
314
313
315
308
310
315
313
258
401
355
313
318
320
319
326
332
347
361
380
390
392
361
322
303
300
301
296
297
303
313
310
324
314
314
315
314
295
332
324
338
314
317
323
321
331
340
351
367
371
384
375
340
311
295
291
289
302
304
306
315
324
330
327
328
327
333
285
432
368
353
333
339
343
345
351
359
375
391
395
400
382
343
315
307
310
310
307
315
317
318
325
331
328
321
326
325
284
389
363
337
322
330
328
331
333
350
357
373
386
384
374
337
308
296
292
292
295
296
299
301
306
310
311
302
306
304
306
255
408
354
325
318
321
322
331
337
347
363
378
390
393
371
339
311
304
309
305
310
313
313
318
320
323
331
327
325
330
330
278
428
374
337
327
328
332
333
338
345
367
375
391
393
376
344
320
304
300
297
293
295
307
302
307
304
310
317
306
312
323
311
257
429
353
323
317
323
324
330
339
344
366
375
395
391
372
339
307
306
307
306
309
311
312
321
317
320
326
325
325
328
327
323
322
262
401
359
314
321
320
324
324
331
344
350
372
371
378
359
322
295
291
277
282
283
292
291
300
295
308
305
305
311
321
312
268
380
361
325
334
341
336
351
355
369
382
398
409
406
387
339
321
320
318
315
324
325
327
328
325
327
333
334
339
330
338
331
312
377
363
332
338
335
341
337
348
361
373
383
401
392
357
324
302
295
303
298
298
304
314
304
303
306
311
309
310
306
311
255
372
345
311
312
310
314
321
323
335
347
365
370
378
351
319
294
292
292
289
293
303
314
309
317
317
324
333
335
335
334
344
294
436
384
358
334
341
340
342
343
359
371
384
398
399
386
347
316
306
314
308
314
311
312
315
312
323
312
318
321
322
316
324
277
403
352
332
310
314
314
323
318
339
342
361
375
378
366
328
290
283
281
277
284
288
295
301
304
306
308
321
317
320
331
278
447
379
343
340
343
346
349
355
366
382
393
407
410
382
352
325
315
320
320
320
329
330
331
327
335
342
335
338
339
339
337
341
341
299
382
352
332
329
321
316
317
335
335
334
370
383
372
356
315
272
276
280
281
277
279
274
279
295
296
300
310
296
285
354
334
350
324
323
344
334
336
345
362
393
402
392
388
369
319
307
313
299
306
311
317
318
332
316
331
324
327
334
335
352
350
313
327
320
317
334
334
337
353
379
379
382
335
295
311
303
300
275
293
304
302
317
273
285
305
316
295
247
406
362
317
293
307
307
297
313
328
336
362
365
370
334
319
293
301
269
285
288
303
303
314
307
309
319
319
316
269
385
360
307
321
313
325
328
326
352
361
375
390
388
347
318
306
303
303
310
319
297
321
336
323
331
345
332
333
291
387
378
340
347
344
343
345
348
354
374
390
393
393
357
319
302
295
289
290
292
301
297
309
293
300
296
309
245
375
338
310
297
296
312
314
317
334
351
357
378
384
359
321
310
301
306
314
319
324
317
332
333
344
327
338
339
272
430
375
337
346
336
346
348
352
364
367
389
399
393
377
331
314
305
317
314
311
319
317
317
322
324
316
317
309
324
269
411
353
326
304
315
312
323
317
333
338
353
363
364
344
305
283
273
270
277
272
280
283
298
291
302
302
309
311
295
327
338
353
323
325
327
339
344
348
378
385
400
407
401
351
329
326
317
318
333
334
329
328
338
346
356
333
342
344
341
289
447
397
345
348
349
338
347
350
359
372
387
398
401
384
342
325
299
305
296
307
297
307
300
308
312
304
310
305
298
255
417
339
303
302
299
307
302
308
324
342
345
365
367
341
316
291
288
273
289
285
292
303
297
311
310
314
309
319
320
254
418
367
318
315
318
322
317
326
343
