325
327
328
328
287
384
362
339
337
341
342
351
361
373
390
406
421
425
395
347
321
313
311
314
314
319
316
320
324
328
324
322
325
326
288
397
363
351
328
328
330
335
346
354
374
391
408
417
412
373
325
307
303
307
306
312
313
316
321
330
330
331
332
332
334
283
437
378
353
340
341
344
352
357
368
385
406
419
430
420
375
332
318
314
313
313
314
319
322
324
327
335
332
329
333
333
327
262
421
366
330
331
333
334
341
350
364
379
399
416
418
394
348
315
307
307
306
309
313
318
321
323
327
332
329
328
331
331
330
270
408
374
332
336
337
341
343
351
363
378
393
406
412
385
337
310
302
298
299
300
302
306
308
306
311
318
313
315
314
320
309
304
336
354
324
326
327
331
338
346
362
378
394
406
409
382
337
310
306
306
312
312
318
321
328
329
334
334
333
335
339
280
466
383
356
345
348
350
352
362
373
389
406
421
428
415
371
328
318
314
312
313
316
319
321
323
329
335
328
330
330
331
320
304
364
365
328
332
331
336
344
353
369
386
403
413
411
379
332
310
303
304
304
309
310
312
312
316
326
331
326
322
324
327
325
269
393
368
328
332
334
336
340
350
362
377
397
407
408
385
334
311
298
300
302
307
308
312
312
314
319
324
323
321
325
330
326
266
399
374
333
333
336
339
345
354
369
383
403
414
418
395
346
316
309
311
312
313
317
317
320
321
320
327
323
328
327
327
265
455
369
342
335
333
339
344
354
365
379
399
410
417
407
363
323
308
306
310
313
320
322
324
328
331
335
330
333
337
338
273
461
389
350
338
342
343
351
356
367
383
401
414
422
407
361
321
307
308
311
310
316
316
316
317
315
319
325
326
327
327
328
276
412
379
346
328
330
332
337
345
355
368
388
403
412
407
363
320
304
305
302
304
306
312
313
311
316
318
322
320
328
330
327
262
426
371
333
334
336
338
349
356
368
385
403
413
417
401
353
321
313
308
310
314
315
318
323
324
329
325
329
330
334
276
452
375
357
336
339
343
345
353
365
379
399
412
419
407
362
323
310
309
309
312
317
320
319
321
325
328
327
329
330
334
267
456
386
344
337
338
339
345
354
364
382
400
414
419
406
359
321
310
309
310
312
312
313
317
317
319
319
324
324
324
328
330
254
446
379
331
328
331
332
340
349
360
379
397
411
417
396
349
317
308
310
308
312
313
313
317
320
320
325
324
328
330
332
275
451
372
350
341
342
343
345
352
363
377
394
404
412
399
359
322
307
307
305
308
309
312
313
320
320
319
323
323
325
326
272
394
363
334
334
337
340
344
353
364
383
404
414
418
392
343
317
308
306
310
311
314
321
322
325
329
331
329
330
332
334
266
462
387
346
339
338
342
345
355
365
382
400
413
421
403
356
320
309
306
306
306
312
314
317
316
317
321
326
324
325
329
332
263
452
384
342
331
335
338
341
349
361
378
396
411
417
407
360
323
311
310
308
313
315
316
319
319
323
333
329
330
331
331
331
285
376
368
336
339
338
343
346
355
367
384
399
412
413
377
338
314
308
309
309
312
316
319
321
324
326
329
327
329
329
333
316
322
380
364
336
337
335
341
350
357
372
389
405
419
414
380
332
313
308
309
309
312
313
318
318
321
323
328
327
329
332
333
263
443
379
339
334
336
338
345
350
360
376
394
406
413
389
347
311
299
299
295
299
300
302
305
306
312
317
315
317
319
322
296
362
338
353
324
328
331
336
342
354
367
383
398
409
404
366
324
305
304
305
309
310
312
316
318
318
321
327
328
329
331
332
312
348
363
366
333
333
339
343
350
365
378
399
415
420
419
378
331
309
303
302
304
308
312
316
316
320
322
332
327
329
333
332
266
451
383
346
335
335
338
343
353
365
377
395
408
417
407
363
324
311
306
312
308
309
312
313
319
320
321
326
328
329
331
275
391
365
332
335
336
340
347
352
367
384
400
413
420
393
344
319
306
308
309
314
318
319
321
326
329
326
325
328
331
285
417
370
355
333
337
341
346
352
361
379
396
411
417
406
365
322
310
309
305
309
313
318
316
323
329
327
326
329
329
332
264
460
379
340
331
331
337
338
346
355
376
391
407
414
393
347
310
300
298
299
302
306
309
308
314
317
324
322
321
320
325
302
350
365
356
326
329
333
338
344
350
366
386
402
412
410
366
324
307
302
302
303
305
307
311
312
319
320
323
321
323
326
327
260
411
365
328
326
327
330
339
346
359
377
397
406
414
391
345
316
308
306
313
314
320
324
325
328
331
333
332
335
337
336
273
464
395
354
344
346
348
353
363
374
391
407
422
429
416
365
329
316
313
313
316
316
319
321
323
321
323
328
331
331
330
332
333
260
433
379
334
335
337
341
346
353
365
382
400
411
416
392
342
311
304
304
306
308
312
316
318
320
321
325
330
331
331
334
337
336
264
461
392
343
337
339
339
342
351
362
380
393
411
419
403
361
323
307
306
309
308
310
316
320
320
318
321
325
323
325
329
328
280
428
364
352
336
340
342
347
355
368
380
397
414
420
415
373
331
316
312
310
314
317
322
321
325
325
329
331
332
333
336
337
285
425
385
360
336
344
345
350
356
364
380
396
413
421
413
370
325
311
307
309
313
313
315
316
318
320
319
322
328
327
328
328
333
327
298
387
377
341
332
341
337
343
332
352
363
373
382
388
364
324
302
300
297
307
305
312
316
315
326
328
325
329
333
335
311
361
364
367
339
343
344
348
357
366
382
402
416
426
419
380
337
319
313
311
314
319
318
323
323
324
324
333
328
330
333
337
263
468
391
342
334
335
338
344
352
362
383
399
416
423
403
353
314
306
302
304
307
307
307
311
312
311
318
321
324
320
326
327
326
268
394
355
328
331
330
335
341
349
360
379
395
405
407
384
336
307
300
301
298
305
307
313
317
318
320
324
324
321
324
327
276
447
385
347
332
337
337
341
350
362
379
395
413
425
413
370
327
316
310
308
313
315
320
321
322
326
332
334
332
335
334
337
261
471
391
341
334
337
340
345
355
364
377
400
416
419
402
354
321
311
309
305
312
313
320
322
320
320
325
323
329
329
334
332
334
258
475
399
341
334
337
337
345
351
364
379
398
412
420
405
360
322
311
310
312
311
315
319
320
324
326
326
330
335
334
334
334
340
331
296
402
381
339
342
343
345
352
359
371
390
407
419
419
387
339
314
306
305
306
307
310
312
312
316
314
313
319
323
322
324
324
325
326
268
396
371
332
330
333
335
341
356
367
379
400
411
416
391
344
313
303
299
304
301
304
308
309
310
312
313
311
322
326
321
327
327
277
452
323
346
338
339
346
351
356
371
384
400
413
422
410
371
331
313
310
309
313
310
316
319
319
319
318
320
323
320
331
331
333
335
338
277
470
344
350
340
341
346
346
356
371
384
405
415
421
414
372
331
312
312
312
311
318
316
322
318
320
321
323
320
327
338
336
333
335
337
285
449
342
352
342
340
342
349
358
361
378
395
414
419
412
375
327
309
306
305
308
310
315
316
316
321
317
320
322
319
322
332
327
329
332
334
282
448
343
347
333
336
338
343
353
361
378
394
408
418
415
378
328
308
304
306
305
307
312
314
318
317
317
317
321
315
323
334
327
333
334
339
292
444
361
357
337
340
347
348
351
359
374
391
407
416
413
376
330
306
297
298
306
305
309
311
314
315
314
316
315
325
323
325
323
327
330
328
284
398
361
335
339
345
346
352
359
371
387
407
420
426
409
358
325
311
310
310
313
314
317
322
321
320
322
323
327
328
329
330
330
337
289
406
377
352
335
338
338
347
349
361
372
392
406
419
414
382
329
309
306
308
308
310
315
315
321
321
323
324
321
324
332
331
334
335
339
337
275
425
373
335
337
339
343
343
354
368
383
401
413
418
403
360
322
309
301
306
306
309
313
316
316
317
317
319
314
320
327
324
325
328
329
283
404
366
348
323
329
334
338
345
355
371
387
407
421
418
386
336
315
311
311
313
316
319
322
328
332
329
331
333
331
334
344
338
334
338
347
284
422
392
348
335
342
341
345
350
359
372
386
408
416
415
380
334
312
306
306
305
304
311
313
315
316
315
316
316
325
314
319
318
322
260
438
350
333
319
322
323
332
338
348
364
378
396
399
400
368
321
299
297
299
306
309
314
313
319
316
324
327
326
328
332
336
304
372
351
364
333
332
339
341
347
362
371
388
403
414
412
388
337
314
312
316
314
317
322
321
324
320
321
326
329
332
329
334
336
329
311
374
374
338
340
342
346
352
364
377
391
405
416
421
403
352
322
315
313
312
318
321
322
321
325
324
328
330
330
331
333
337
269
461
375
343
333
337
337
341
344
354
369
381
392
398
396
363
324
291
294
295
291
297
301
301
307
305
308
311
311
315
319
261
446
356
331
322
329
327
335
346
354
376
383
396
405
392
349
319
296
289
312
303
308
309
313
315
313
324
320
313
321
272
447
352
326
327
329
335
342
350
361
380
395
414
421
406
364
327
316
315
316
319
335
334
329
332
333
332
335
280
429
360
337
339
342
346
355
357
374
388
407
417
423
391
338
313
308
308
312
313
320
322
329
327
326
326
328
328
249
455
380
332
331
336
339
345
353
364
381
397
411
416
399
351
317
308
305
307
312
313
315
316
317
317
322
324
326
325
326
328
264
438
391
342
330
331
334
338
344
354
369
388
401
411
407
370
326
305
304
304
306
310
313
321
314
317
318
323
328
325
330
329
333
324
283
383
370
328
332
335
340
347
356
367
385
402
410
414
398
352
322
310
308
307
310
311
314
314
318
317
323
323
324
323
330
324
293
356
368
336
335
338
346
350
358
374
388
403
412
416
393
344
315
310
308
313
315
318
316
320
319
327
324
321
325
328
277
427
346
349
333
335
336
336
350
360
375
396
409
416
408
368
325
310
306
306
310
314
317
318
321
318
322
322
329
326
328
336
337
270
437
372
339
338
342
346
354
361
370
390
405
416
427
407
362
323
311
309
310
312
316
318
319
321
322
320
322
329
327
325
328
333
275
435
371
348
330
334
334
340
345
355
371
384
403
410
407
370
328
302
299
301
296
303
305
311
312
313
312
313
318
324
321
322
327
329
282
406
375
354
335
337
345
347
350
364
374
394
410
421
422
387
338
314
308
307
306
306
309
310
313
316
316
318
317
316
321
320
320
319
322
228
492
371
320
319
324
326
333
340
353
369
387
402
409
396
347
309
299
297
298
299
300
306
309
314
314
317
317
319
323
330
326
326
331
331
274
419
401
343
332
331
335
340
347
358
371
392
407
416
416
381
335
313
310
309
312
316
318
323
324
327
325
326
329
335
332
336
337
340
277
451
386
353
338
342
343
348
353
364
376
392
406
417
415
375
329
308
305
304
307
310
312
311
315
315
317
316
317
318
320
323
323
324
265
385
369
327
332
332
337
342
350
360
375
392
403
407
394
350
314
302
304
303
306
306
309
310
313
313
315
317
324
321
320
317
322
295
350
377
356
326
331
335
343
349
353
368
388
399
412
411
385
339
318
312
311
315
316
319
321
322
325
326
324
327
336
336
335
339
342
319
353
356
374
340
340
342
348
353
361
375
390
403
414
416
392
345
315
305
308
305
308
313
313
313
316
314
314
317
322
320
321
320
327
307
334
350
361
328
328
335
336
342
349
362
375
389
400
401
382
337
306
298
297
301
301
310
307
315
314
316
317
318
318
323
328
330
324
327
263
433
377
321
303
331
335
350
352
353
378
393
404
412
405
365
322
316
301
305
310
326
317
321
323
323
313
330
326
327
335
335
328
292
357
376
338
348
348
354
356
361
377
382
414
414
417
392
352
334
321
315
325
326
322
333
338
334
329
332
343
339
338
341
342
320
377
358
365
335
343
343
348
349
360
370
388
398
406
414
388
338
313
311
311
315
316
315
315
317
317
316
319
318
325
328
323
330
334
271
433
372
345
331
333
337
338
349
357
373
388
398
405
406
367
322
310
307
304
312
311
316
318
320
322
319
324
329
327
329
328
334
331
287
370
366
333
333
341
344
342
352
367
375
391
401
407
386
343
309
302
303
303
305
304
303
310
312
316
314
315
324
319
324
326
327
276
414
358
344
328
330
335
337
349
355
372
383
398
407
401
373
336
306
312
310
316
322
323
316
324
326
324
328
335
336
339
342
338
346
338
300
408
375
339
342
345
349
354
362
372
389
405
417
413
403
354
320
309
311
310
310
319
317
321
318
319
322
321
321
322
327
329
332
267
436
376
339
329
333
337
341
347
357
375
388
398
404
402
360
322
305
303
305
302
308
307
312
316
315
314
320
322
324
325
325
327
272
370
360
328
332
328
337
345
347
362
374
394
395
408
389
349
318
304
306
310
310
314
316
317
318
321
323
324
322
328
327
330
273
391
368
335
340
336
342
347
354
366
376
401
408
410
399
360
324
314
314
315
314
323
323
321
322
326
324
328
334
332
337
338
326
309
356
373
331
337
340
347
348
357
364
382
396
406
412
390
343
315
307
306
310
311
313
316
313
314
316
314
325
322
323
320
328
260
430
369
334
326
328
329
337
340
352
364
379
390
398
390
351
317
302
297
308
305
308
306
311
312
314
312
319
309
317
319
322
307
288
373
358
321
331
333
343
347
363
374
380
398
404
403
390
342
306
302
292
300
298
315
305
293
298
299
305
304
311
317
321
305
348
340
356
331
335
334
341
347
358
371
389
406
415
420
392
345
319
312
317
321
325
323
327
330
331
334
336
336
334
337
339
265
466
384
343
340
339
341
348
354
364
377
396
407
413
400
354
316
302
300
299
302
307
306
309
309
311
317
315
315
320
319
254
449
369
335
321
324
324
332
337
350
365
381
396
406
396
356
317
301
301
301
304
307
310
316
317
318
321
325
327
329
331
333
263
458
378
341
337
339
344
349
358
367
382
400
413
420
411
365
327
313
313
311
315
318
322
322
324
321
325
328
328
329
329
334
289
422
373
358
336
337
341
342
350
360
374
388
405
412
409
377
330
314
306
311
310
311
315
319
318
317
319
322
325
326
329
330
327
277
387
368
331
334
339
340
347
355
366
384
399
407
413
396
351
320
308
307
311
311
314
316
317
319
323
324
329
330
329
330
332
262
435
372
334
333
335
337
343
349
360
377
393
402
410
399
355
318
306
306
308
312
318
323
321
324
323
324
329
330
333
334
338
288
427
375
358
337
341
342
348
354
364
377
395
408
416
415
375
332
313
310
307
312
314
317
316
319
320
320
324
326
325
328
331
331
263
431
373
333
333
335
337
342
349
363
378
393
404
411
396
356
317
308
306
308
314
315
317
320
320
317
321
326
329
328
331
334
329
285
387
377
336
340
343
347
350
359
371
386
405
416
420
395
349
316
311
312
314
315
318
318
321
322
321
324
330
334
332
333
335
333
278
398
378
335
337
340
344
351
356
368
381
398
409
416
394
350
317
310
309
309
313
315
318
317
318
317
321
327
324
326
326
325
314
321
347
364
328
333
333
339
342
355
364
378
394
403
407
381
335
310
303
301
305
306
310
311
315
314
320
318
325
325
329
331
332
265
447
376
337
335
337
340
347
353
364
377
396
412
418
405
357
322
307
308
308
312
315
321
321
322
321
323
325
332
333
333
335
340
267
445
386
340
340
341
343
346
355
364
383
399
413
416
400
355
322
309
307
311
311
314
317
318
320
322
319
320
323
327
330
332
333
262
447
381
337
332
336
336
341
348
362
378
396
408
417
408
360
322
306
304
308
309
312
313
316
320
319
321
320
329
327
328
331
335
267
453
377
340
334
335
338
343
348
362
376
395
410
415
409
371
331
310
309
310
312
314
320
319
324
319
329
330
329
330
328
330
296
395
348
353
330
335
339
344
343
352
368
380
396
412
408
375
325
310
304
301
305
303
308
311
310
321
322
325
325
330
332
342
284
441
346
339
341
343
343
354
363
373
389
407
421
425
407
361
327
317
319
316
313
315
313
326
321
320
323
332
336
331
333
333
337
280
471
358
343
339
340
347
348
353
362
379
399
414
425
407
369
324
310
305
306
315
320
316
319
320
323
326
324
324
327
327
328
331
282
404
336
336
340
345
344
346
352
367
379
403
411
415
400
357
319
309
304
308
311
315
315
316
315
316
324
334
323
319
322
326
324
296
374
342
330
332
339
340
347
355
371
390
408
416
423
399
348
323
312
311
314
318
319
325
326
326
326
331
333
335
334
335
337
325
329
364
360
342
334
340
344
353
358
373
381
404
419
415
392
338
315
309
299
303
308
311
309
316
329
315
313
331
333
326
331
329
341
301
359
363
361
331
333
340
336
348
353
367
389
410
417
422
390
341
313
307
309
306
312
313
319
324
325
325
327
327
338
334
332
331
333
300
375
376
353
327
328
331
334
338
347
357
379
396
405
406
372
326
302
297
291
300
298
301
303
306
307
313
316
315
317
319
320
316
280
359
353
322
323
331
332
339
349
357
379
393
409
412
396
347
319
311
306
309
309
310
319
317
322
323
323
326
323
326
325
268
465
367
340
333
335
336
339
346
353
369
386
401
410
401
358
320
304
301
303
304
309
308
308
307
320
319
316
320
321
321
269
451
352
342
324
329
333
339
343
354
370
391
404
414
406
365
321
313
302
303
308
308
307
322
324
321
323
330
330
320
327
341
350
330
331
338
342
345
356
366
385
404
415
408
379
335
315
315
311
312
313
310
316
333
327
317
325
328
329
326
326
346
354
337
336
344
337
343
359
374
393
408
419
416
383
340
323
321
320
325
331
330
335
342
339
336
335
332
332
319
342
365
362
333
336
336
339
342
351
369
384
399
415
410
373
324
301
296
297
296
299
304
307
310
308
317
315
320
318
322
328
322
282
387
363
329
329
333
335
344
354
366
384
399
415
418
392
345
312
308
307
311
314
310
319
316
321
324
327
321
329
333
332
334
336
337
269
469
396
349
343
344
342
346
355
363
376
392
410
415
408
369
327
309
306
308
309
310
312
318
314
317
314
314
326
325
325
326
326
270
441
372
341
326
329
331
336
342
355
369
385
399
406
401
365
323
308
298
305
305
308
311
312
313
324
325
326
329
328
332
322
312
363
360
337
337
341
342
351
361
373
388
411
416
416
390
348
322
317
317
321
320
314
327
326
328
334
331
323
328
332
332
297
380
368
330
339
337
347
351
367
378
392
408
424
423
398
346
316
309
308
314
316
320
328
326
322
322
322
327
314
322
357
363
330
331
333
336
341
351
365
384
401
409
406
370
319
304
299
301
301
304
306
310
319
321
319
319
323
324
312
309
373
369
327
329
332
333
337
348
359
380
395
404
405
371
324
301
297
298
299
303
307
311
311
316
318
314
313
322
324
255
440
371
334
328
331
333
338
349
358
371
388
399
407
397
351
315
303
299
302
305
312
318
321
323
319
322
324
322
267
417
362
332
332
339
345
346
356
370
378
397
404
412
387
346
317
310
308
309
312
315
328
332
330
325
323
330
330
312
373
343
364
344
340
350
353
357
368
381
399
414
416
408
372
328
308
307
311
311
317
316
316
324
320
323
325
320
324
318
296
344
347
326
324
334
334
344
351
367
379
391
403
398
369
326
301
297
299
306
312
309
316
317
330
327
328
325
330
336
337
310
372
367
337
340
342
341
347
356
369
388
406
415
413
385
334
314
305
307
307
311
316
316
317
325
319
313
319
332
326
329
335
340
296
412
353
354
334
342
342
345
354
363
375
393
404
416
410
373
334
311
308
308
311
315
316
322
326
325
323
323
331
331
334
335
338
278
462
375
351
337
339
342
346
352
363
378
394
411
416
408
368
325
314
307
306
304
309
312
317
319
319
317
321
326
325
328
325
330
330
275
411
365
330
333
334
339
342
351
363
382
398
410
417
394
345
315
305
304
305
307
311
316
315
319
323
322
321
324
335
334
335
339
338
270
444
396
345
333
335
335
335
344
351
366
383
395
403
398
362
318
299
299
297
298
302
304
303
308
309
307
310
318
314
315
319
321
311
302
346
351
322
325
328
333
339
348
364
379
398
412
414
389
341
317
308
310
312
317
323
326
327
324
326
326
329
333
333
337
338
326
315
387
373
338
341
342
343
350
381
358
385
408
447
404
390
344
306
310
305
313
304
313
319
314
318
317
324
321
329
330
331
338
333
275
421
367
331
336
333
344
354
356
371
385
404
412
424
402
351
320
306
305
308
314
311
313
320
321
319
322
327
323
329
331
332
261
460
377
343
325
334
338
341
355
363
376
390
403
415
408
358
329
313
308
305
309
310
315
316
319
314
323
324
327
327
330
331
330
267
421
374
334
336
335
338
342
348
366
375
400
410
414
398
350
319
306
305
307
310
315
316
317
322
323
327
327
330
328
332
280
431
374
353
333
333
339
340
347
355
370
388
404
412
405
371
326
310
305
306
306
307
313
313
313
314
316
327
323
327
328
329
268
464
378
343
330
341
342
336
354
366
375
387
404
409
400
358
323
301
303
301
306
309
313
314
315
316
319
324
321
319
321
322
261
439
364
336
324
325
324
332
339
346
361
377
393
397
395
358
314
294
292
292
293
295
302
304
312
308
314
315
315
318
322
260
418
360
329
332
332
336
340
347
359
377
392
406
413
399
358
322
314
314
316
320
322
324
329
339
335
329
333
335
339
296
425
373
365
344
344
351
352
359
370
383
402
415
425
421
381
338
319
316
317
319
322
324
327
334
335
334
332
333
334
336
266
462
390
339
338
339
341
345
354
367
383
402
412
419
403
356
320
310
309
309
313
313
317
321
322
327
327
323
326
327
330
279
406
361
348
328
328
330
335
339
352
365
383
395
402
401
360
317
301
294
296
299
302
302
311
320
311
312
315
317
320
256
443
358
339
327
332
336
343
354
365
380
398
410
419
407
362
325
313
314
313
320
319
332
339
336
327
331
329
332
306
360
346
364
336
334
339
344
352
362
374
390
406
414
412
375
330
310
308
307
312
312
316
324
327
323
323
325
326
325
257
422
371
329
331
333
342
340
354
364
377
394
404
409
385
339
307
301
300
302
306
312
306
314
317
320
316
316
320
325
266
441
362
338
327
329
330
338
341
352
372
388
399
408
401
362
321
307
303
304
303
307
313
317
316
316
313
322
322
260
446
368
340
332
339
340
345
354
365
382
403
411
416
400
351
318
310
306
310
313
326
328
326
324
325
326
331
266
429
368
336
335
336
343
351
359
374
391
408
415
417
393
343
317
311
312
312
317
318
324
326
328
324
324
329
330
259
447
380
338
334
334
334
339
348
360
375
393
405
410
392
343
313
306
304
305
307
310
314
316
315
320
326
326
325
323
327
263
439
384
344
333
338
341
348
349
362
375
392
404
410
400
357
320
305
303
305
303
308
310
314
311
316
320
319
321
321
324
319
279
356
358
327
329
329
331
340
349
361
376
394
403
408
381
338
312
304
306
311
311
317
320
324
326
327
327
329
334
311
359
367
370
339
341
344
347
352
364
377
396
411
419
413
371
330
313
312
311
312
316
320
321
324
323
324
325
326
330
330
331
333
333
260
441
382
333
334
335
339
343
350
362
378
394
407
410
395
348
315
305
304
303
308
312
312
315
317
313
317
325
320
323
325
327
295
381
340
352
329
333
334
335
344
354
368
384
396
405
401
369
327
308
306
307
314
315
318
319
319
324
330
328
330
332
334
309
366
351
366
336
337
341
346
351
360
374
391
403
413
405
371
327
307
303
307
309
309
314
316
320
321
322
327
328
329
329
334
323
311
370
369
334
336
340
342
348
355
369
384
401
414
414
384
338
315
311
310
311
313
318
318
320
320
321
324
331
329
332
336
336
261
453
387
341
336
341
342
348
354
364
377
395
405
414
397
351
320
305
305
304
305
312
309
311
315
313
317
319
319
322
323
326
313
319
338
360
331
331
338
339
344
353
363
383
396
406
407
380
336
311
308
308
310
312
316
320
322
325
326
330
330
335
334
337
297
407
365
363
337
340
340
345
351
364
377
396
409
418
413
374
330
311
306
308
311
315
317
320
317
320
321
323
326
328
329
331
322
298
371
366
330
333
335
340
345
352
366
383
399
412
412
383
335
310
305
304
308
310
314
315
319
319
320
324
329
330
330
332
334
301
370
385
362
334
335
337
341
347
356
370
388
403
414
410
373
329
310
304
305
306
308
312
314
315
317
319
317
319
326
326
329
331
333
275
432
393
347
336
337
338
343
350
359
376
389
406
413
403
365
325
310
304
306
309
311
313
315
314
317
313
316
324
321
322
324
327
282
422
356
348
330
331
336
338
343
353
368
385
398
407
403
367
326
307
305
305
305
310
314
316
321
320
324
331
327
328
332
333
271
460
379
348
337
338
343
350
354
366
381
398
410
419
408
362
326
312
309
310
312
317
317
320
325
321
327
325
332
332
331
333
334
271
407
376
334
337
338
342
347
355
368
383
399
413
418
393
344
319
311
310
311
311
313
318
318
318
319
324
327
328
329
330
335
311
343
380
365
335
337
338
340
345
356
370
385
403
414
411
378
333
314
309
309
312
313
316
316
320
319
319
321
329
326
328
329
332
319
312
353
360
325
327
329
333
339
348
362
378
391
401
404
373
326
305
297
300
299
299
305
306
308
311
316
320
320
321
324
326
305
359
346
362
333
337
339
344
353
365
375
394
409
418
419
382
337
317
312
314
313
315
319
322
322
323
322
323
328
331
328
329
332
266
455
393
345
332
335
336
342
348
358
374
391
405
414
404
360
319
307
306
308
309
310
315
317
320
318
322
326
327
327
328
332
331
262
424
378
335
334
337
340
341
352
365
379
399
411
413
392
346
315
306
305
303
309
308
311
313
313
316
318
322
323
323
325
328
303
365
339
359
332
331
338
338
346
355
369
386
399
408
408
378
335
311
304
304
306
310
314
318
320
318
320
322
325
327
326
329
264
465
370
342
339
340
348
350
362
373
390
408
423
428
421
375
335
325
321
326
326
332
334
335
333
331
338
337
338
337
336
338
283
437
386
354
334
339
339
346
349
359
375
393
408
416
408
365
320
302
301
303
303
306
308
314
312
313
314
320
322
323
324
327
311
321
357
362
326
330
334
341
342
347
365
383
398
407
408
374
327
306
303
300
302
303
305
307
308
307
315
322
316
319
325
326
321
298
358
365
331
333
335
335
343
352
365
381
397
410
410
382
335
309
305
304
306
308
312
312
317
315
318
325
324
327
331
333
302
377
371
368
335
339
338
345
349
362
376
393
408
418
415
377
330
312
306
309
308
312
312
316
318
320
322
321
324
325
327
280
432
355
345
329
323
331
334
342
346
360
377
392
401
391
352
312
298
294
294
300
305
310
319
318
319
319
320
326
327
278
391
358
332
336
339
343
349
359
373
393
411
424
425
393
346
323
316
314
318
322
325
336
332
330
330
331
334
317
340
368
363
337
340
340
344
350
361
375
391
407
416
410
366
323
307
303
304
307
307
312
310
315
318
317
315
318
319
321
270
415
365
342
322
326
328
333
341
351
368
388
402
410
402
360
321
306
301
304
305
308
313
315
319
320
320
324
329
331
331
332
336
335
272
416
380
337
340
342
347
353
361
370
390
403
413
421
394
346
317
304
304
305
309
311
313
317
317
319
317
322
325
324
326
326
327
314
312
360
361
327
330
329
338
342
353
363
385
397
405
409
378
332
307
299
300
304
306
310
314
317
319
320
324
328
329
331
332
336
269
464
391
350
338
340
345
348
356
368
383
400
415
423
408
363
325
311
308
312
317
313
317
315
318
318
319
324
325
328
330
332
333
328
289
405
373
333
336
335
337
344
352
363
382
398
410
412
384
333
307
301
302
304
306
308
312
315
317
317
319
324
325
326
328
329
246
466
385
334
332
334
336
342
350
359
376
396
410
413
398
344
308
301
299
303
308
310
310
319
318
320
322
322
328
327
329
309
334
371
365
332
335
339
341
349
359
373
391
406
415
415
378
334
311
310
309
314
317
318
319
324
325
329
329
330
332
334
271
403
379
336
337
340
344
349
357
368
387
404
414
416
390
341
313
305
308
308
310
313
316
317
317
318
324
322
321
320
326
302
347
341
358
327
328
332
335
341
350
362
376
392
401
400
367
327
303
298
302
303
306
306
310
317
319
319
318
321
326
327
260
429
367
336
332
333
340
344
354
367
382
398
411
416
397
351
321
312
311
313
317
322
324
322
325
330
332
330
332
335
336
279
428
379
355
334
336
339
343
351
360
371
393
404
413
408
368
324
305
307
304
310
312
315
317
317
318
325
328
325
327
327
331
292
377
361
356
332
334
339
343
351
358
373
388
404
410
407
370
327
307
301
301
304
306
308
313
314
318
315
321
324
327
327
327
331
329
274
404
377
332
335
336
340
345
352
365
382
396
409
414
389
342
315
310
308
306
308
312
315
316
315
318
317
317
323
324
324
327
329
322
278
374
367
329
332
335
338
346
351
365
382
396
408
413
389
343
314
306
306
307
313
317
321
323
322
322
322
330
328
328
332
332
303
361
378
365
335
338
340
344
350
361
372
390
406
416
415
379
332
314
308
311
312
315
317
320
320
323
324
326
327
331
333
331
334
335
329
282
409
379
336
339
338
342
344
353
366
384
400
410
413
389
341
312
307
305
306
308
311
313
316
318
320
321
323
325
332
328
331
331
334
322
300
389
370
332
335
336
338
344
352
361
380
396
404
411
385
338
311
305
299
301
306
307
309
311
315
316
317
320
320
323
325
326
322
287
357
361
329
331
332
336
341
350
366
379
397
409
412
393
347
316
307
305
309
311
313
317
320
320
320
322
328
328
329
331
331
271
448
384
348
332
333
338
343
350
360
373
391
407
415
408
368
327
309
307
308
310
313
317
319
320
321
323
325
327
330
328
331
334
333
269
422
379
334
337
339
342
347
355
368
381
397
413
417
397
352
316
308
309
309
309
310
314
314
318
318
317
322
327
328
328
329
332
329
278
392
375
332
336
337
341
346
353
366
381
399
409
413
394
345
315
307
306
308
312
314
317
319
319
322
321
326
330
330
331
331
333
288
400
379
356
332
333
336
342
347
355
367
381
400
407
406
371
328
305
302
301
305
303
308
310
310
312
310
313
315
315
317
320
322
256
415
360
328
326
330
333
338
347
359
372
393
406
413
403
358
322
309
310
314
317
319
323
323
325
329
333
331
334
335
336
327
313
370
370
335
340
341
346
353
359
375
390
409
415
418
385
340
315
310
308
311
314
316
320
320
320
321
323
326
329
333
337
338
263
462
391
338
333
336
336
343
350
361
376
395
407
414
400
357
317
305
305
307
306
310
309
315
314
314
315
318
324
322
326
326
330
261
445
385
338
327
328
331
337
342
352
367
383
401
409
400
358
318
303
301
301
307
310
315
318
319
318
317
320
324
323
322
324
327
322
273
401
373
333
334
333
337
339
348
359
379
398
406
412
389
344
315
306
306
306
309
312
313
316
318
318
317
320
329
329
329
328
333
307
364
354
359
332
334
337
339
344
358
368
384
399
407
409
380
337
314
308
305
309
309
315
317
317
319
325
326
325
324
325
331
329
276
394
369
334
336
336
340
347
353
365
382
397
411
416
392
345
316
307
306
308
310
315
317
319
320
320
321
327
333
332
334
336
341
278
445
401
356
341
342
343
347
351
363
377
394
408
415
411
371
329
311
307
309
310
311
314
318
319
319
318
320
324
325
325
326
331
332
260
427
380
332
334
336
338
346
351
363
378
394
407
411
393
348
315
305
305
304
308
312
313
314
316
316
317
319
325
327
328
328
329
280
427
367
348
331
332
336
335
345
355
366
383
398
406
401
369
327
308
303
302
305
307
307
311
313
314
321
324
326
326
328
330
306
355
356
360
330
336
336
342
349
357
370
388
405
415
413
383
335
313
306
306
308
311
315
318
319
322
320
327
328
332
331
331
335
334
278
411
380
340
342
343
346
352
359
371
385
402
414
416
393
347
316
306
305
307
311
314
316
317
319
318
319
319
323
331
328
330
333
333
260
454
390
338
332
331
335
339
346
356
369
386
399
408
399
362
321
305
302
306
306
312
313
318
321
323
323
326
328
330
331
331
334
336
261
447
387
337
339
340
341
347
353
363
378
397
408
417
404
358
322
311
307
309
306
312
311
310
314
316
316
315
318
325
324
322
323
328
276
418
363
349
330
331
336
340
346
353
370
385
398
407
405
373
327
308
301
300
304
305
306
313
313
314
317
319
323
323
326
327
330
270
395
365
332
334
337
339
347
356
367
383
401
412
418
400
351
322
312
310
313
314
318
320
322
324
325
327
330
331
332
336
338
336
283
408
378
338
336
341
343
348
356
368
383
402
415
418
396
350
318
310
309
311
311
317
317
317
320
320
320
322
328
327
330
327
330
260
454
392
339
333
334
334
341
347
357
371
386
401
409
400
357
318
307
302
303
306
308
309
313
314
317
316
318
323
325
327
329
326
329
258
425
378
330
331
333
337
344
352
362
378
394
406
413
396
351
316
304
308
307
311
314
313
316
318
320
318
323
329
328
329
329
330
326
293
365
370
331
335
334
338
344
353
364
380
395
405
409
388
345
313
304
302
304
308
309
311
311
312
317
321
325
323
326
326
327
282
413
365
354
334
336
339
341
353
363
377
395
409
420
414
381
337
317
312
310
314
317
319
321
322
326
327
327
331
332
331
335
336
303
373
369
365
334
336
337
343
348
355
369
388
406
413
413
383
335
313
306
307
307
305
314
312
312
317
316
317
316
321
322
322
326
330
253
449
382
332
331
333
336
341
349
357
370
390
405
410
399
357
319
305
304
304
309
310
311
314
315
316
316
322
328
328
330
329
331
321
300
355
359
324
326
326
335
341
347
361
377
390
401
406
384
337
308
299
298
300
302
303
309
310
311
312
317
322
324
324
327
331
307
366
365
359
337
339
343
344
351
362
375
389
406
414
417
386
343
316
314
312
315
317
323
322
321
328
325
331
333
332
330
332
335
303
396
377
353
332
336
341
342
349
359
371
386
406
412
410
379
331
305
301
300
300
300
306
309
309
311
310
315
319
321
324
321
325
330
271
437
374
344
330
332
331
339
347
357
374
392
409
421
416
380
332
311
307
308
307
316
318
322
323
325
328
322
324
334
330
329
331
331
258
481
394
342
333
334
335
339
346
356
369
389
404
417
411
368
329
309
310
306
310
317
313
316
315
318
320
324
326
327
327
333
331
336
269
433
373
342
344
347
353
354
363
376
388
405
420
426
409
359
321
310
308
309
313
309
316
316
314
318
318
320
324
322
326
326
330
291
382
377
356
329
331
338
336
345
351
365
383
399
409
411
379
331
311
308
307
308
311
313
316
319
321
321
317
323
334
325
323
323
326
301
338
371
355
324
328
333
337
341
350
360
375
391
400
408
383
338
310
297
295
296
296
301
302
301
305
306
311
320
319
321
322
327
266
443
368
345
329
332
337
339
348
360
375
393
408
417
412
374
330
313
309
309
310
313
316
320
320
323
321
323
330
331
331
331
333
292
396
379
361
335
338
342
345
351
358
373
388
404
414
413
382
338
317
313
310
313
317
319
317
322
318
319
318
319
327
324
328
330
333
274
426
376
345
329
328
333
336
343
353
368
382
395
401
403
371
327
307
301
299
304
306
307
309
308
310
310
309
317
318
320
323
327
258
452
377
339
330
333
338
344
351
362
378
393
408
415
411
371
330
314
309
311
313
317
322
322
322
322
326
325
332
327
330
334
336
261
458
391
342
337
339
344
345
353
362
376
391
406
412
405
363
322
308
306
308
308
312
315
317
315
318
317
318
325
324
323
326
329
327
271
403
371
329
333
335
339
344
354
367
380
397
411
411
394
350
318
309
307
309
310
313
315
317
319
320
318
320
326
322
326
325
326
282
404
357
348
328
331
335
336
347
354
365
381
396
400
401
374
333
308
304
300
307
305
311
312
312
315
313
320
317
320
323
326
273
443
367
348
332
335
339
342
351
359
374
390
404
414
412
377
335
314
311
308
316
317
318
319
321
325
325
329
326
326
328
331
263
462
387
341
332
332
334
341
347
358
370
389
401
411
402
363
320
303
303
302
305
306
311
313
315
317
319
323
327
326
329
331
333
257
444
385
336
336
336
340
346
352
364
379
397
411
415
401
356
320
310
309
312
312
312
315
316
318
317
318
325
326
326
328
332
324
289
386
368
330
333
336
339
343
352
364
379
396
409
411
389
342
310
304
305
308
309
313
315
317
317
321
324
321
325
325
326
328
260
416
374
331
332
332
337
340
351
359
373
390
402
411
399
361
323
310
311
309
314
315
318
315
317
320
325
321
323
326
327
293
369
357
356
326
330
333
336
341
349
365
382
396
405
406
377
329
305
299
300
305
307
307
308
310
313
314
317
324
323
324
327
330
285
399
386
353
335
338
340
343
351
359
372
389
404
412
410
379
336
314
309
311
313
316
320
322
323
322
321
323
329
329
332
334
335
287
409
384
351
335
335
339
340
347
356
372
385
400
407
403
375
327
309
303
304
305
307
311
311
312
310
317
318
315
321
322
322
319
279
359
362
330
332
334
338
348
357
370
382
399
407
416
401
355
322
313
313
314
318
320
322
324
328
329
334
333
332
335
336
266
458
385
346
339
340
344
346
356
368
379
395
406
412
405
365
326
312
310
311
312
314
316
319
319
322
322
329
328
330
333
335
289
398
385
357
333
334
338
341
348
356
370
386
400
410
410
377
334
312
309
308
310
312
313
316
318
318
322
326
326
325
328
330
295
367
368
354
328
329
332
336
340
348
362
376
393
401
400
370
325
304
299
300
303
304
307
309
313
313
315
315
322
321
325
327
328
283
399
377
350
332
335
337
338
344
356
372
387
401
411
409
380
335
316
309
311
311
311
315
318
317
320
317
320
326
322
324
327
330
311
336
338
360
329
329
331
336
341
350
362
374
390
397
403
375
334
307
299
301
304
306
310
312
314
317
319
325
324
325
325
328
326
297
365
371
332
336
337
342
349
357
371
386
400
412
415
394
349
320
310
309
310
313
315
318
321
321
320
321
324
328
327
327
330
329
255
445
382
333
330
332
333
340
346
356
371
389
401
408
400
360
320
306
306
308
310
312
318
320
322
323
324
323
326
333
330
332
332
336
295
384
381
357
339
340
342
346
351
358
373
386
401
411
411
384
339
318
309
309
311
312
314
316
320
321
323
321
325
331
332
331
333
333
333
273
407
378
335
337
340
342
346
355
364
380
396
404
412
400
354
322
310
309
309
312
313
315
317
319
321
319
321
324
326
327
326
330
330
265
432
370
336
335
338
338
344
351
360
373
390
400
410
405
366
325
309
306
307
309
312
314
317
318
321
318
323
327
326
326
327
330
294
375
360
357
330
333
335
339
345
351
363
379
391
400
402
375
327
307
303
304
305
307
308
311
314
316
317
317
320
324
323
325
326
327
319
303
371
366
328
334
335
337
345
353
364
379
394
405
407
391
347
315
306
304
304
304
311
310
313
316
316
318
324
325
324
323
326
324
279
363
361
328
332
335
340
348
355
366
380
394
406
411
398
358
323
312
312
315
317
318
321
323
323
323
325
328
331
330
333
335
336
266
452
386
341
339
340
342
346
353
363
377
391
404
411
402
364
325
312
308
311
310
315
316
317
320
321
318
319
325
327
325
328
328
329
263
418
374
330
329
336
335
341
346
359
371
387
399
407
396
356
318
305
302
305
305
307
309
311
311
312
316
320
321
322
328
330
325
297
360
368
336
338
342
345
347
358
367
383
399
411
413
395
347
317
307
308
311
313
315
317
318
319
318
319
320
327
327
329
329
331
262
452
384
336
335
337
340
344
350
359
373
388
404
409
402
363
325
308
306
306
307
310
314
315
316
317
319
325
327
329
329
333
333
269
418
368
337
335
337
339
346
352
363
378
394
401
405
394
354
321
304
303
307
309
311
314
315
314
319
321
323
322
323
327
326
279
381
365
331
332
335
338
343
354
367
379
399
408
413
391
343
314
305
304
307
310
315
317
315
318
318
320
325
327
327
327
331
269
444
379
343
332
333
334
339
346
356
370
388
404
410
405
365
324
306
306
306
304
309
314
314
318
318
316
318
324
324
329
326
331
277
428
370
346
332
334
334
340
346
356
370
387
402
411
408
374
331
308
304
305
308
314
314
318
321
321
323
327
324
328
329
329
315
341
339
363
331
335
338
344
349
359
371
386
402
412
414
387
341
313
306
307
308
314
314
317
318
321
321
330
328
327
329
332
277
433
377
351
335
338
338
343
349
357
373
390
405
415
409
370
325
308
305
307
309
309
313
314
318
316
317
319
326
327
329
332
334
273
441
386
347
334
336
340
343
348
358
370
391
404
411
406
368
324
305
303
302
304
305
306
306
311
310
313
316
320
320
319
321
325
258
439
370
332
323
326
327
331
341
350
366
386
399
408
400
359
316
301
297
299
303
306
313
315
316
317
317
325
323
327
329
333
280
428
368
355
335
337
340
342
349
361
372
392
406
415
411
375
331
312
308
309
312
314
315
318
320
322
325
326
332
332
332
335
335
276
443
387
347
337
339
341
346
351
359
376
393
408
416
411
373
330
315
311
309
312
314
318
318
319
322
318
321
331
328
328
331
332
313
340
350
365
334
337
340
341
350
357
370
385
398
411
413
385
340
314
303
303
305
305
309
310
313
310
312
318
315
319
320
322
310
318
338
358
326
330
334
337
344
354
368
383
401
410
416
386
338
312
309
308
312
316
320
322
325
325
328
329
333
332
333
333
335
248
504
380
339
343
340
341
346
351
361
380
400
412
420
409
361
325
317
315
313
314
313
317
318
322
323
331
333
330
334
333
336
282
436
373
350
332
337
341
340
345
355
371
387
400
407
407
368
325
307
303
302
305
305
311
313
314
319
318
324
322
326
329
332
260
442
374
337
331
331
334
338
349
358
372
393
402
407
393
351
312
296
299
300
303
307
307
312
311
311
317
312
315
317
323
254
445
375
332
322
323
329
331
339
351
368
382
396
404
398
355
318
303
302
304
307
310
313
318
324
322
322
325
328
332
268
433
373
344
343
342
345
352
357
371
384
401
412
421
404
358
322
311
312
311
313
316
323
332
331
324
325
327
327
322
283
376
368
330
334
334
338
344
353
366
385
400
411
415
392
341
314
310
311
311
314
316
316
318
322
329
320
320
320
322
323
259
400
361
325
327
327
332
337
343
356
368
385
397
400
387
343
313
301
295
298
301
304
311
323
316
310
312
312
317
283
393
331
354
328
336
339
343
351
361
377
395
408
418
412
379
333
318
316
317
319
323
331
339
335
326
328
330
331
326
293
368
367
336
337
339
344
349
360
370
387
402
411
414
387
345
315
309
307
307
312
316
318
318
319
332
324
321
317
316
317
256
437
353
330
320
324
326
332
340
349
363
381
394
406
394
357
317
298
294
297
297
301
307
316
324
314
309
309
312
317
255
444
351
330
330
334
337
341
351
363
382
401
416
422
407
362
328
315
313
317
320
321
330
345
333
328
326
326
329
308
349
348
353
332
337
339
346
350
359
373
391
408
418
414
373
325
309
306
307
310
313
316
318
321
328
336
326
324
325
326
328
245
519
377
332
333
336
335
337
344
357
372
389
407
414
405
359
321
307
302
302
304
306
310
314
316
315
320
322
318
322
321
322
322
214
539
362
326
326
329
330
335
342
353
370
387
402
410
396
347
313
303
299
298
299
305
306
310
312
313
317
320
320
321
321
324
324
247
449
365
328
330
332
334
341
353
361
375
389
403
411
400
353
316
306
306
307
310
312
314
316
317
319
326
326
329
325
326
325
324
242
451
369
332
331
335
336
343
351
365
377
390
403
408
397
358
322
308
308
309
312
315
320
320
319
322
328
328
331
333
335
273
452
372
360
339
344
346
350
355
364
379
389
401
408
404
368
328
307
304
306
306
308
308
309
312
315
317
317
316
319
320
264
434
344
340
320
323
328
332
342
354
369
384
394
405
400
367
323
307
306
305
310
316
316
318
323
325
326
328
324
329
323
292
360
365
332
335
336
343
348
358
371
385
401
409
409
386
340
311
309
309
312
317
321
321
323
322
329
330
329
329
333
333
308
338
389
357
338
339
340
342
347
356
371
387
402
410
413
382
333
311
308
308
304
306
310
310
310
318
321
317
316
316
319
314
235
431
367
322
325
328
330
335
346
363
375
394
404
417
395
350
316
309
308
315
313
318
320
322
326
327
329
324
328
329
308
338
320
364
330
333
336
336
345
351
364
378
386
395
398
370
325
301
296
300
302
307
309
312
320
320
321
322
326
331
303
373
335
365
335
340
343
346
355
365
382
396
408
417
414
381
338
317
315
317
319
321
326
324
326
329
328
326
331
327
330
266
441
369
340
336
334
340
342
349
358
377
388
396
403
388
345
310
301
298
301
302
305
312
317
316
317
317
319
320
322
261
401
357
334
332
335
337
340
351
362
378
396
406
410
389
343
314
306
304
307
311
313
316
321
322
324
325
327
328
332
260
458
377
341
335
338
340
344
351
362
380
394
409
414
394
349
314
305
305
304
307
311
314
315
317
322
320
319
322
325
323
269
390
366
327
330
332
336
339
346
363
378
397
408
408
383
338
311
306
305
308
310
314
319
319
324
321
328
325
327
332
331
278
414
379
353
334
334
336
339
347
356
372
386
403
410
401
363
322
304
302
303
304
305
309
311
314
315
317
321
320
320
323
322
254
436
361
331
326
332
332
341
351
361
379
392
408
412
402
356
320
309
306
311
309
315
317
322
321
322
328
329
333
334
335
263
448
377
341
340
343
345
352
357
373
387
403
416
421
400
354
322
313
310
310
314
314
316
320
317
320
319
324
324
326
330
333
253
446
379
331
331
334
335
340
348
359
376
392
406
412
393
348
317
302
300
304
303
307
306
311
310
310
313
320
319
320
322
324
253
449
375
332
323
331
333
335
343
356
372
388
400
405
392
346
309
299
295
296
300
304
306
309
310
319
321
321
321
325
329
313
319
354
364
332
337
337
345
352
363
377
391
409
419
417
384
337
316
311
312
314
317
321
324
325
323
328
333
332
332
333
333
330
278
402
374
331
334
337
341
346
355
367
382
400
410
413
387
336
308
303
300
300
304
308
312
316
316
314
321
326
325
325
325
329
296
355
368
355
325
328
330
335
342
351
365
380
398
406
405
371
325
308
303
302
305
305
311
312
315
320
321
326
322
327
325
333
274
450
362
346
331
336
341
343
349
364
378
392
408
416
406
364
323
308
308
306
304
308
310
312
310
312
314
319
317
319
318
321
250
452
372
333
327
329
332
338
348
359
376
391
403
408
395
354
315
301
300
304
305
305
312
313
312
315
317
324
323
323
324
326
264
457
365
341
328
329
333
339
345
357
372
385
399
407
394
356
321
304
303
298
300
306
309
310
318
329
327
321
322
323
328
308
338
366
357
331
334
337
343
348
359
374
388
404
418
415
380
329
309
302
304
304
307
310
313
317
325
327
319
321
320
323
316
275
394
354
325
327
328
333
339
348
359
379
397
411
417
383
336
311
302
302
306
307
311
314
318
332
330
319
322
323
323
307
325
369
357
330
334
338
339
346
355
369
387
404
416
416
381
333
314
309
309
313
317
320
319
327
335
329
323
327
324
332
282
412
377
351
332
337
340
343
347
360
376
395
408
415
410
366
324
307
304
302
305
307
309
314
328
316
314
314
316
319
304
326
348
351
323
324
329
334
346
353
366
384
401
408
404
370
325
305
303
302
303
307
311
309
316
325
327
318
318
322
323
323
263
407
361
325
329
335
337
344
353
364
380
399
411
417
388
342
312
304
303
304
308
311
314
317
321
333
327
323
323
327
325
275
426
359
350
329
333
333
337
349
358
369
388
401
410
403
363
322
304
303
302
304
310
314
317
322
334
322
321
324
327
329
271
448
368
346
332
335
340
344
355
365
382
398
413
418
410
364
326
313
313
312
315
318
321
322
324
327
332
334
331
333
334
336
262
458
382
339
337
337
342
346
355
368
382
402
410
416
394
344
313
302
302
304
303
307
311
313
316
319
315
319
325
324
322
324
325
327
261
420
377
330
332
337
338
344
355
365
383
401
414
416
395
343
315
306
303
304
305
306
311
314
312
313
313
316
320
318
320
323
323
254
440
374
332
330
330
331
336
346
358
374
387
400
411
396
353
317
306
304
303
306
311
314
315
319
326
322
325
327
327
329
296
377
354
356
331
335
340
346
354
364
379
393
409
418
410
370
328
312
308
310
312
315
318
319
318
319
325
325
327
325
327
329
331
259
429
373
329
331
330
333
340
348
361
379
396
410
414
392
342
313
304
301
305
309
311
314
316
320
322
323
324
323
323
331
330
331
334
337
283
416
393
354
338
338
340
344
349
361
377
389
408
415
413
374
331
311
307
308
309
308
311
313
315
317
319
315
318
323
324
325
327
330
327
275
375
367
331
332
336
339
343
351
366
378
393
404
408
391
345
313
302
300
300
303
307
309
312
315
315
317
321
327
325
329
332
332
263
438
379
340
340
340
344
346
357
366
385
402
415
422
406
359
326
315
313
313
317
322
323
327
328
329
328
331
336
338
336
337
341
329
311
388
374
336
340
341
343
350
359
371
386
400
411
413
386
336
313
305
303
304
306
309
311
311
313
313
311
313
319
316
316
319
323
268
418
363
339
325
325
329
330
339
346
358
378
392
401
393
358
314
296
292
294
292
298
303
302
303
307
310
315
315
317
320
321
272
434
354
348
329
333
338
345
354
364
378
396
410
420
414
374
333
318
312
313
317
320
323
326
334
336
334
331
334
336
334
283
399
372
335
336
340
342
348
358
371
388
405
414
417
387
337
312
307
307
306
308
312
314
316
320
322
324
323
324
327
330
254
444
377
331
332
332
334
341
346
357
373
392
404
412
391
342
311
303
302
303
305
307
311
313
316
318
323
328
327
326
330
332
300
372
368
357
331
335
336
338
346
353
368
385
396
406
403
369
325
303
298
298
299
300
303
306
306
310
314
317
320
319
320
326
288
396
347
359
333
337
340
345
353
366
378
394
409
417
412
376
334
315
311
309
313
316
318
320
327
326
325
327
330
332
276
433
375
350
334
336
338
343
349
361
376
396
409
415
400
355
318
309
306
308
311
315
316
318
319
320
322
323
328
331
331
332
332
336
258
452
389
336
335
336
339
343
352
359
375
393
405
412
402
359
321
305
303
301
303
305
309
313
314
315
313
316
324
317
322
325
325
308
329
334
358
326
327
333
340
345
359
370
386
403
412
416
387
344
316
310
308
311
318
321
322
326
323
329
329
332
332
332
337
336
271
412
380
337
339
340
344
350
357
371
385
401
413
418
393
344
313
307
305
308
309
312
317
318
320
322
321
324
330
329
330
332
333
271
439
391
346
336
337
338
343
350
359
374
390
405
413
406
363
321
306
301
304
306
309
309
311
311
314
310
315
313
321
322
319
322
324
254
431
370
329
326
326
327
334
341
353
370
384
393
402
386
346
311
297
294
297
297
302
306
309
308
309
313
320
321
321
326
329
300
377
351
360
333
336
339
343
350
360
374
390
406
416
413
377
334
314
310
309
312
314
319
321
323
322
323
326
330
331
333
333
335
331
280
403
375
335
337
339
343
349
353
365
379
398
411
416
391
344
312
308
304
306
307
311
314
317
320
323
322
324
327
330
332
333
336
336
261
445
389
339
341
340
344
349
355
366
379
397
407
411
397
348
315
303
299
300
303
303
307
311
311
312
312
315
319
320
322
322
325
259
443
372
335
328
333
333
339
347
358
370
385
400
409
402
362
325
305
302
303
303
308
314
319
314
316
324
315
322
323
323
330
320
280
373
350
326
335
333
335
342
354
358
379
394
406
405
388
347
316
304
308
320
307
311
313
312
310
316
319
323
326
330
335
326
319
391
355
339
344
343
348
353
364
376
395
414
422
428
398
346
324
315
315
317
316
318
322
337
330
329
330
331
337
323
328
383
358
339
337
335
342
346
355
368
385
404
415
412
377
327
308
304
305
304
306
310
307
315
316
319
316
319
323
324
243
474
377
330
325
328
330
335
345
355
372
392
407
413
394
340
306
296
296
294
296
297
300
301
306
307
307
309
311
310
315
320
318
320
321
326
278
387
400
346
328
328
331
333
340
351
363
384
400
411
414
384
339
314
306
303
305
308
313
314
320
319
319
322
326
327
329
329
332
334
333
268
422
374
337
339
339
343
347
356
367
385
401
413
421
400
354
319
310
309
309
307
313
315
318
319
320
322
323
325
330
329
330
332
336
280
420
386
351
335
339
341
345
351
359
374
389
401
411
409
374
330
309
304
307
307
311
313
316
316
318
323
322
326
331
330
331
331
333
282
414
385
355
335
333
337
341
347
356
371
390
402
413
410
376
330
309
304
306
307
311
313
317
317
320
322
322
324
332
331
331
335
334
291
411
379
359
337
340
342
346
351
360
374
393
407
414
411
374
328
308
305
305
308
308
314
316
317
318
320
320
322
321
328
328
329
332
335
271
443
385
346
333
334
338
345
349
359
374
392
404
413
407
370
325
307
305
305
306
309
313
315
315
317
320
320
321
320
324
330
330
330
334
335
273
443
387
342
335
336
338
342
348
358
374
391
402
411
405
369
324
306
303
300
302
304
307
311
313
314
313
314
315
319
323
323
324
323
326
322
291
358
363
329
331
335
337
344
353
365
379
396
406
413
395
347
314
308
303
307
308
312
314
316
318
317
322
321
322
323
325
328
329
333
334
269
409
375
334
336
339
341
350
356
369
383
400
410
416
402
356
323
310
308
308
311
315
317
319
322
323
323
325
325
328
333
331
331
332
333
328
298
391
375
338
340
342
344
349
359
369
385
400
412
417
396
351
319
309
307
308
311
313
315
320
321
322
324
326
325
325
326
332
333
337
338
340
268
445
386
338
337
338
339
347
353
364
374
389
404
414
402
365
324
308
305
306
309
307
313
314
315
316
318
318
320
326
328
327
328
332
303
372
347
364
334
337
341
346
351
359
373
387
403
413
417
389
344
316
310
307
310
312
316
318
319
321
319
319
320
323
330
326
326
330
332
299
375
370
357
331
333
338
341
349
355
368
384
399
408
409
382
337
313
308
306
307
309
314
316
316
319
318
320
319
323
329
329
332
331
335
282
420
385
357
337
337
338
342
350
357
371
387
401
411
412
380
332
310
303
307
305
312
311
315
315
320
320
320
318
320
328
327
330
330
332
316
319
371
365
335
334
339
343
346
353
365
379
398
408
413
394
345
314
306
304
307
308
310
312
315
316
315
317
315
315
319
326
324
328
329
333
270
446
383
343
333
337
339
344
347
358
372
390
401
412
412
380
335
312
310
312
311
313
315
320
322
322
323
322
324
321
328
332
329
330
334
329
284
384
369
332
334
336
338
344
352
362
378
392
403
408
400
357
323
305
306
306
308
313
314
317
316
320
318
325
324
328
332
337
272
462
378
350
341
346
351
351
361
372
388
400
412
424
418
374
331
312
308
308
313
307
317
317
319
320
319
329
328
323
331
321
324
294
394
372
329
334
335
339
346
353
365
378
397
411
412
390
340
308
296
295
298
300
298
303
306
305
310
308
311
312
313
317
261
404
378
342
323
323
328
329
337
346
363
377
397
409
407
372
328
307
303
305
305
308
311
316
318
321
320
325
327
327
260
448
375
335
329
332
334
340
347
360
374
393
404
415
401
360
318
306
304
306
306
309
313
317
317
315
321
326
325
325
326
328
328
256
431
377
332
332
337
339
342
349
362
377
391
403
411
400
356
324
307
304
307
308
310
311
312
314
313
314
317
320
319
318
322
321
260
389
366
323
326
328
330
335
346
357
371
387
397
404
392
349
317
305
302
307
310
312
315
320
320
323
320
326
331
332
273
453
384
357
339
343
344
347
358
368
380
394
412
417
412
374
333
314
312
313
317
319
326
332
334
330
329
332
333
333
268
413
373
332
333
336
337
342
351
363
378
398
409
416
391
344
316
308
304
307
311
313
312
319
319
318
321
321
325
318
280
392
366
324
328
332
336
342
351
363
380
398
412
412
385
334
310
305
307
307
306
310
313
314
313
317
314
315
320
320
320
323
323
318
267
379
364
321
326
327
330
337
343
356
370
387
400
408
397
353
316
303
304
303
309
311
315
324
326
327
327
330
333
330
279
394
372
332
336
340
341
350
356
368
386
401
414
415
387
340
314
310
308
309
312
315
319
319
322
318
323
328
326
328
330
332
272
422
391
347
331
333
335
341
346
357
370
387
401
411
409
371
327
311
306
305
307
308
310
313
315
315
317
316
321
322
321
322
323
326
297
350
358
356
329
330
331
336
343
352
365
377
390
399
404
379
334
308
302
302
303
305
308
313
316
316
315
317
325
325
328
331
332
310
355
361
367
334
338
339
342
349
358
372
386
403
412
413
385
338
316
307
308
311
314
317
319
319
319
322
324
322
327
328
329
335
336
262
455
389
340
334
335
338
344
353
363
374
391
403
411
404
367
324
310
305
306
308
312
315
316
320
320
321
324
329
326
326
331
331
298
381
348
357
331
332
335
338
345
354
366
381
394
406
406
380
335
309
305
306
305
311
314
317
319
318
320
322
331
331
333
333
334
268
455
379
346
335
338
339
342
348
359
373
389
402
408
403
366
326
309
304
304
308
311
315
318
318
319
319
321
327
328
327
330
331
323
304
372
372
334
337
339
342
349
355
371
385
402
412
413
391
347
318
309
306
310
311
312
314
315
316
315
321
322
323
321
324
324
325
259
409
365
326
327
328
335
340
347
358
373
387
399
408
396
353
317
303
303
304
308
309
310
317
318
315
319
326
326
328
331
333
275
429
377
351
336
337
339
344
349
357
372
386
401
410
407
368
325
310
306
308
309
312
315
318
323
321
324
325
328
327
327
328
329
255
446
379
332
330
334
338
341
350
360
375
388
403
409
400
358
321
309
308
308
312
311
314
318
320
320
322
328
326
326
325
329
305
345
356
365
330
336
337
341
347
352
366
380
394
404
406
381
337
315
305
303
305
308
312
311
312
317
321
318
319
324
329
308
342
340
363
333
337
340
344
350
359
373
388
402
412
412
387
340
315
311
310
311
315
316
317
323
322
326
332
330
332
333
336
271
452
382
352
335
340
341
347
352
364
376
393
408
416
412
374
332
313
309
309
311
312
315
320
322
324
327
331
330
332
333
324
302
388
370
330
338
335
335
342
351
364
382
398
407
409
381
333
308
299
301
299
303
305
309
309
311
313
315
313
319
318
320
262
381
358
323
324
325
327
332
342
350
370
383
398
404
385
345
314
304
303
308
310
315
319
319
324
321
327
331
332
335
336
263
464
391
346
340
341
341
347
353
367
379
396
410
417
406
364
324
311
310
309
310
315
315
319
320
319
322
328
327
328
329
333
327
285
385
372
333
335
340
342
347
352
365
380
395
406
412
391
343
313
302
304
305
306
310
313
318
318
315
318
323
325
325
328
331
328
260
422
380
333
334
333
334
340
350
362
377
392
406
410
393
346
313
305
304
304
310
309
313
315
317
317
320
322
322
326
326
317
298
350
362
326
329
334
335
342
349
363
382
395
405
407
385
339
313
307
307
309
313
317
318
322
323
325
327
328
330
333
276
452
373
354
335
338
341
344
349
360
372
390
403
409
407
368
326
309
304
304
308
311
311
316
319
323
327
323
325
323
330
305
347
356
361
328
331
333
337
344
353
367
384
400
411
408
377
330
309
306
308
311
311
314
318
320
327
335
330
324
328
329
333
263
452
388
342
332
336
336
343
349
362
375
390
406
410
403
361
319
306
301
300
302
303
306
311
326
314
308
315
311
313
268
408
343
342
321
327
328
331
341
351
366
381
399
409
407
367
325
308
305
306
308
314
320
335
326
322
323
325
328
304
351
346
356
329
334
335
342
349
359
375
393
407
417
414
379
334
316
306
308
311
314
319
332
328
321
321
323
326
320
277
393
363
329
330
335
338
346
353
366
383
400
411
410
382
337
310
304
303
304
304
310
316
325
323
320
319
323
318
314
266
377
356
322
328
329
333
339
349
358
377
392
403
408
380
331
310
302
301
305
307
309
318
323
319
321
320
322
324
277
403
369
349
327
333
334
339
348
363
373
392
408
417
406
363
325
311
309
311
309
314
319
320
323
337
330
325
327
328
329
281
415
358
351
332
333
336
336
345
356
369
386
398
405
400
364
325
304
301
298
300
300
307
311
327
315
311
316
316
318
261
442
354
341
326
331
335
340
350
357
373
387
402
411
402
360
323
307
306
310
310
311
317
328
329
320
321
323
327
322
277
381
360
326
333
335
342
347
356
366
385
403
416
417
384
336
313
307
306
307
309
314
315
317
322
331
326
324
324
327
327
253
454
380
334
330
332
336
340
348
358
373
391
406
411
399
355
315
304
302
305
308
307
308
310
309
317
327
318
317
318
319
322
251
452
374
334
334
334
337
345
350
360
375
390
407
412
397
354
318
311
306
309
308
312
310
318
318
324
327
326
330
330
334
284
432
369
351
336
339
342
344
349
363
380
394
409
414
406
363
325
309
304
307
307
312
313
318
325
325
325
325
326
330
321
297
350
357
324
331
336
342
342
353
366
381
399
410
411
379
336
312
307
309
309
313
315
326
323
322
324
330
333
304
371
356
352
331
335
333
339
347
357
372
394
406
416
407
364
321
307
303
306
304
310
319
321
319
319
320
325
318
286
375
357
327
330
330
333
339
351
366
383
402
414
412
374
330
311
306
307
308
307
312
313
313
322
323
321
321
325
325
302
342
370
359
327
330
332
335
341
352
366
385
400
410
410
372
326
307
303
301
306
306
312
313
317
316
321
324
323
324
325
329
330
262
421
377
331
334
337
338
346
354
364
381
399
411
415
392
344
316
306
308
309
311
316
317
320
322
324
324
329
333
333
333
335
337
333
273
417
380
336
339
341
342
347
358
369
385
398
413
415
390
341
311
303
302
305
307
310
312
312
312
309
314
317
318
320
321
321
323
248
427
373
324
326
327
328
336
341
353
370
382
397
404
390
343
311
298
295
298
302
310
310
312
316
316
320
325
324
329
328
333
271
451
385
353
337
340
342
347
354
365
380
398
413
418
408
369
329
311
309
309
310
315
321
321
324
321
327
328
330
331
332
335
336
264
431
382
336
338
339
340
345
351
363
379
395
411
414
394
347
316
306
305
306
310
314
315
316
316
320
322
324
327
329
330
333
332
262
424
377
332
333
335
336
344
352
364
379
397
410
415
392
342
313
304
305
306
309
311
313
314
317
317
317
318
323
323
324
327
327
263
445
382
341
329
331
334
339
347
354
372
386
399
407
397
359
320
300
299
298
301
307
310
314
315
318
325
328
328
328
328
333
322
313
367
368
336
340
342
343
350
360
374
389
406
417
419
388
341
314
307
307
311
313
318
320
322
323
321
323
321
330
327
330
330
331
256
466
395
336
333
335
336
342
348
360
373
391
405
412
400
358
319
307
307
309
307
310
313
315
317
316
317
318
323
325
325
329
332
286
398
379
355
333
335
336
341
347
356
370
387
401
408
405
368
326
305
300
300
302
305
307
313
314
313
314
315
320
320
319
322
323
256
437
367
332
329
330
333
343
350
362
376
395
409
417
405
362
325
315
312
311
315
318
323
323
325
326
329
333
336
336
339
339
271
463
397
354
341
344
346
352
358
367
383
400
414
420
409
368
327
314
313
312
311
311
316
319
321
324
324
322
330
327
329
330
332
266
433
392
343
329
331
332
337
343
353
366
383
400
409
400
358
317
302
303
302
305
310
311
313
320
319
319
320
324
322
326
324
328
266
433
381
338
327
328
331
334
339
350
365
380
394
402
396
357
316
302
298
299
298
300
307
306
311
312
315
319
317
319
321
324
261
449
370
341
327
329
332
340
346
360
375
390
401
412
404
365
323
310
306
308
310
314
318
317
324
322
327
325
329
332
337
267
464
377
345
333
337
342
345
350
359
374
391
407
411
401
360
323
310
306
308
311
310
316
320
324
328
329
328
327
331
335
263
469
390
347
336
338
344
346
354
365
383
400
414
419
406
362
320
311
308
309
311
311
315
318
321
321
325
326
326
324
327
330
248
458
385
332
329
331
331
338
344
357
373
392
406
416
398
350
315
305
302
304
306
309
311
316
316
318
322
329
327
328
327
331
272
430
392
353
336
336
338
342
347
357
371
387
404
415
408
366
322
308
303
302
303
306
309
312
314
317
319
326
328
328
331
334
307
352
370
365
332
337
338
342
346
357
370
387
400
412
408
375
328
304
301
296
301
301
308
304
308
311
310
319
314
317
320
321
255
439
367
331
321
325
329
339
346
359
371
391
400
410
400
357
321
306
306
309
309
317
318
322
327
327
327
330
328
331
333
277
402
368
336
337
340
343
349
358
368
386
403
416
421
396
348
320
314
313
313
316
318
323
332
333
327
330
329
330
316
318
390
364
332
333
333
336
342
353
368
384
402
413
407
365
318
303
300
300
303
306
307
309
308
316
318
314
315
316
319
307
300
359
355
321
323
326
329
337
346
360
377
393
401
403
377
327
302
301
301
303
305
311
313
317
320
321
321
322
323
326
272
425
365
345
334
334
336
343
346
361
376
385
410
413
404
366
324
310
307
308
308
312
313
317
321
320
319
323
322
324
268
389
363
335
332
336
338
347
353
363
387
402
414
413
391
341
317
308
302
310
313
316
322
325
322
321
322
324
326
267
390
363
332
332
331
337
341
350
364
378
395
406
411
378
332
305
302
301
302
304
309
320
321
323
320
322
327
326
255
431
364
327
331
334
340
347
354
372
387
402
414
419
385
334
313
310
307
310
309
313
314
325
325
323
325
326
327
313
308
388
365
338
326
328
326
334
335
360
372
385
393
394
362
317
290
286
283
288
294
311
303
302
304
310
314
272
426
321
348
334
336
342
352
363
375
391
406
419
426
415
370
333
322
323
326
326
329
333
333
338
338
338
336
339
342
286
423
402
364
344
347
352
353
358
360
376
383
395
400
385
353
307
287
279
283
288
286
290
299
301
295
295
296
299
305
253
375
348
329
333
341
345
354
367
377
395
409
419
427
405
359
329
316
310
309
311
301
306
307
305
298
302
302
304
246
440
332
327
328
335
342
355
367
378
396
420
429
429
408
365
318
301
294
289
291
298
304
315
317
318
325
334
343
330
354
365
371
321
310
319
320
329
342
357
379
397
413
416
381
350
327
313
301
291
292
294
302
305
307
308
311
313
316
267
451
353
332
318
324
327
339
349
361
386
394
409
415
401
351
319
308
306
314
314
321
323
333
349
352
347
349
343
343
328
326
376
372
339
346
335
335
335
353
367
389
409
429
425
400
345
317
314
314
304
301
310
316
317
322
333
335
336
343
338
347
292
430
377
340
320
318
320
3
