348
349
347
323
389
385
351
354
355
357
361
369
379
393
403
410
392
348
326
320
325
327
329
332
333
334
337
338
340
342
345
318
392
404
370
346
351
352
357
362
369
384
400
411
413
385
346
328
328
332
332
333
334
337
339
343
344
343
346
348
286
449
396
352
352
352
353
356
364
375
393
407
416
409
371
342
336
337
342
352
351
350
355
355
352
350
350
351
289
471
405
355
347
349
351
357
360
370
385
400
406
403
361
328
318
318
318
325
327
332
336
340
342
339
342
344
345
302
417
384
345
349
350
354
354
361
373
393
403
413
393
349
326
325
326
328
332
336
336
341
348
344
347
350
351
297
425
397
361
360
364
364
366
374
382
399
411
418
408
368
334
329
329
328
330
333
333
337
341
341
343
343
340
275
439
381
339
335
338
339
343
347
359
376
389
393
384
345
316
305
307
306
310
314
315
319
323
326
325
329
332
327
307
404
373
339
342
346
350
356
365
378
397
410
412
392
353
331
330
331
335
338
340
342
347
349
347
352
354
350
326
406
393
353
357
358
361
366
375
388
404
417
418
397
354
334
332
332
335
336
337
338
344
346
346
347
350
349
289
456
405
357
350
354
357
362
368
379
392
407
414
413
378
345
333
333
338
342
342
341
344
345
349
346
348
353
321
429
390
378
356
358
360
364
368
377
390
404
413
416
390
354
336
337
336
338
340
341
348
347
345
344
344
346
279
447
387
345
341
344
345
351
357
367
381
394
400
392
354
326
318
320
321
327
327
330
333
337
337
337
340
341
285
413
381
341
342
348
347
353
360
374
390
404
410
397
358
333
326
329
333
335
337
343
350
352
350
352
354
336
363
394
381
352
354
357
360
365
374
387
401
412
416
392
353
336
333
334
335
339
341
343
347
348
348
350
354
345
345
396
386
355
353
356
358
364
371
385
401
410
419
400
363
342
338
337
339
343
345
351
357
358
356
358
363
306
466
406
367
362
364
367
371
380
386
402
413
422
416
381
349
338
341
340
339
344
351
353
348
347
347
347
284
457
391
350
345
348
352
356
359
369
384
394
401
393
355
324
316
315
317
322
325
331
334
331
330
331
336
269
445
388
341
340
342
343
346
354
364
378
394
400
389
352
323
319
320
325
327
328
334
340
342
342
344
344
335
344
390
380
351
354
358
364
367
375
392
407
417
420
397
359
340
339
341
343
346
351
355
357
354
357
357
355
299
417
393
354
357
358
362
369
375
388
402
414
420
404
361
336
333
331
336
339
344
352
355
350
349
353
355
303
453
410
362
348
351
351
356
363
372
386
402
412
411
373
338
332
328
327
329
330
332
333
345
342
337
339
343
340
312
397
379
346
348
352
355
363
370
384
400
412
416
396
355
331
328
327
332
336
338
342
344
347
358
352
350
352
354
323
414
416
373
356
360
365
367
367
378
390
404
415
418
393
356
338
334
336
339
340
341
346
351
353
347
348
351
352
297
462
402
361
351
352
356
358
363
372
385
398
406
403
368
331
324
319
323
324
322
323
326
329
334
332
331
332
336
277
450
378
347
333
339
341
344
350
362
379
392
401
402
372
334
323
323
325
330
332
337
344
351
344
343
344
349
290
472
410
364
353
358
363
372
381
393
410
423
431
425
387
359
352
352
351
351
347
349
350
355
366
359
357
356
360
306
464
423
369
359
364
366
368
374
383
397
415
424
420
389
350
340
330
331
334
334
340
343
343
354
344
343
344
347
298
452
397
359
349
348
350
358
361
373
387
403
413
416
384
344
328
327
330
330
335
341
352
359
351
349
352
353
297
475
407
368
360
359
366
371
377
387
402
417
427
422
385
348
335
333
331
333
335
337
345
343
338
337
339
338
276
420
375
332
336
336
342
343
348
360
378
392
398
385
341
314
307
307
309
312
314
318
325
329
326
325
325
330
269
410
371
334
336
340
344
352
360
372
387
406
412
405
370
340
334
335
337
342
344
353
363
361
360
362
366
359
338
393
399
373
374
374
382
389
398
412
427
439
445
431
390
362
358
361
362
365
370
381
372
366
367
367
363
344
416
403
368
370
372
375
379
385
395
410
418
424
400
358
336
332
330
333
334
337
340
348
339
336
336
337
299
404
399
353
333
333
334
334
337
342
356
373
382
382
349
308
292
291
291
298
305
310
316
325
336
331
332
335
334
277
434
391
336
328
331
335
340
345
358
371
386
395
397
365
328
317
317
319
325
328
332
335
347
344
340
342
344
343
327
382
384
351
351
359
366
368
377
385
405
415
421
408
367
346
338
339
342
345
346
351
361
356
350
351
354
347
330
395
389
354
356
357
363
367
376
390
405
416
421
400
360
337
331
333
334
341
343
347
347
349
355
352
354
353
355
296
461
415
359
353
355
359
360
366
376
391
407
415
415
382
345
336
338
338
344
341
339
346
347
351
353
356
354
359
303
464
412
369
359
360
362
365
370
382
393
406
412
412
382
344
329
329
324
326
328
329
330
329
331
326
324
324
320
295
378
363
326
330
331
332
337
347
358
378
389
398
382
340
318
313
316
316
322
320
323
328
337
333
334
335
338
298
414
396
355
338
334
336
339
343
354
369
384
392
393
363
324
308
304
306
309
308
310
314
317
318
324
322
323
326
310
335
370
356
327
331
333
336
342
352
367
381
395
400
380
342
324
322
324
329
332
335
339
341
345
350
350
353
356
346
366
410
391
363
365
368
371
377
385
398
411
420
425
405
362
345
340
342
345
349
350
353
355
360
360
363
361
362
324
408
402
369
375
375
382
383
389
400
413
425
433
424
385
359
351
348
350
354
357
355
356
355
353
352
348
349
285
462
395
350
340
340
337
339
346
357
368
380
386
382
346
312
302
297
297
298
298
297
298
301
303
304
306
310
310
255
382
354
311
316
319
321
324
334
350
366
383
391
383
344
319
315
318
325
327
334
336
340
346
351
352
357
358
358
307
433
407
363
366
368
373
375
382
399
414
426
434
423
384
356
350
348
350
353
355
358
360
366
369
370
367
370
373
310
476
421
375
372
376
377
380
389
399
413
425
430
430
391
356
345
339
345
347
347
350
349
350
351
352
353
349
349
349
314
408
399
364
342
343
341
341
344
352
362
377
384
389
367
324
305
299
299
304
305
309
311
315
317
318
323
322
323
326
333
266
418
378
334
334
338
341
345
354
367
384
399
410
407
374
342
332
332
336
341
343
347
351
356
359
363
361
363
363
315
480
404
383
366
369
373
380
383
392
407
418
428
427
402
364
345
342
343
345
348
348
352
350
348
351
350
354
353
326
398
390
375
349
348
351
357
362
370
384
399
408
410
387
348
331
323
326
330
332
334
333
334
338
347
347
349
353
358
287
463
404
348
349
349
353
354
360
374
386
402
416
416
381
345
333
333
335
337
340
347
351
353
359
362
359
363
370
342
409
411
387
357
362
361
366
369
373
387
403
409
415
390
351
325
318
317
319
319
319
318
323
323
324
326
326
331
266
428
367
325
317
318
323
328
336
345
361
374
380
379
346
313
305
305
304
310
313
316
325
324
329
330
334
335
278
460
403
353
339
338
341
346
354
366
384
399
408
408
373
335
322
321
323
326
328
334
336
340
344
344
345
348
318
402
405
372
351
355
358
358
364
374
389
404
415
421
392
351
335
334
336
341
348
351
356
360
365
366
370
370
356
390
415
401
378
382
384
388
394
402
415
431
442
448
424
384
361
355
356
361
362
368
372
374
380
379
379
379
380
339
427
413
383
381
384
385
387
391
400
412
420
425
415
373
343
333
333
333
333
333
331
335
334
333
330
332
336
299
400
383
351
328
330
332
335
338
346
358
370
382
383
360
319
301
299
301
307
310
315
318
323
325
331
332
335
338
337
306
396
379
346
348
351
353
356
366
380
396
412
419
405
367
336
329
331
332
332
336
333
336
338
339
339
332
336
296
413
356
347
327
323
321
320
323
323
337
348
354
360
332
289
270
265
266
272
275
280
280
286
286
285
285
289
295
228
390
342
299
303
309
313
319
329
344
363
381
394
386
349
319
315
315
318
325
328
333
337
340
346
348
349
351
358
293
480
421
370
369
373
377
378
384
396
413
430
440
437
402
366
359
356
358
362
361
365
364
368
374
377
373
378
377
317
486
434
386
380
381
384
386
392
402
419
433
443
439
403
365
351
349
351
355
356
356
361
362
364
364
367
368
344
413
408
399
367
370
369
375
378
390
403
415
425
428
404
364
343
337
339
342
343
346
347
346
347
352
353
352
353
357
306
449
419
368
353
359
359
361
365
372
385
399
409
412
385
341
324
318
319
326
327
329
332
336
338
341
345
343
347
348
332
377
390
378
352
357
360
365
369
377
390
405
417
422
404
366
339
333
333
334
336
339
342
342
341
342
341
337
338
336
270
447
378
331
321
321
323
325
329
337
349
361
368
363
326
288
275
273
274
275
277
279
278
280
281
282
289
288
289
293
282
286
361
329
299
304
311
317
324
332
349
367
384
393
380
341
320
319
323
324
330
335
337
346
348
355
362
359
367
370
373
317
494
437
389
382
384
387
390
397
406
425
443
455
458
429
392
378
375
373
378
380
384
386
384
388
388
390
393
401
341
483
442
395
391
390
388
389
396
404
419
428
435
428
392
353
339
332
327
325
335
331
326
327
324
317
321
320
322
288
405
344
327
333
332
338
338
356
356
367
387
389
377
335
320
313
314
321
334
349
357
377
375
371
376
382
384
312
532
416
381
385
388
393
396
405
419
436
453
462
451
399
367
359
357
355
355
355
362
360
356
355
351
350
273
490
414
345
337
335
336
339
343
351
367
385
395
395
352
307
292
291
289
292
292
295
298
298
303
305
306
308
306
295
281
410
340
306
306
308
316
323
332
349
369
384
394
378
330
303
296
299
302
304
307
313
316
322
325
326
327
329
334
280
438
419
357
348
353
357
362
366
373
387
405
415
420
391
353
335
327
330
331
333
339
346
349
352
358
361
359
360
299
472
413
368
361
366
371
376
383
391
406
424
428
429
398
361
347
345
349
353
352
354
355
358
364
361
363
362
365
304
454
406
362
363
365
368
370
376
388
403
418
426
420
379
346
334
335
338
339
342
343
348
351
350
352
353
353
297
458
410
363
359
363
366
369
374
384
398
412
422
422
387
348
335
334
336
339
343
345
347
352
356
355
358
358
357
309
413
399
362
366
367
372
373
378
393
406
420
431
419
382
352
342
342
343
346
349
352
354
360
363
361
365
366
368
305
439
405
363
362
364
365
368
372
383
396
409
418
415
375
340
329
331
334
335
337
338
339
339
339
339
346
347
347
350
325
390
401
372
351
350
353
355
358
367
380
396
407
412
397
358
335
330
330
331
333
335
339
342
343
344
348
349
350
352
355
309
439
407
370
355
356
360
361
365
373
387
404
415
421
396
355
337
333
332
336
337
341
342
346
347
348
350
354
351
350
353
322
400
403
375
353
353
354
361
364
372
384
400
413
420
402
361
337
330
332
336
338
340
342
344
349
348
350
354
355
356
358
358
316
411
399
362
362
366
367
370
375
385
401
414
419
414
374
342
335
337
340
340
344
351
352
353
352
356
356
358
360
361
360
298
467
410
367
366
364
372
373
380
390
402
414
424
425
398
360
342
340
340
342
345
345
348
350
349
348
352
349
349
351
346
315
399
384
346
348
351
353
356
367
379
388
402
404
399
361
334
325
319
313
314
312
315
321
320
318
316
319
320
313
318
319
259
399
361
323
326
326
329
331
336
352
366
383
394
390
354
325
309
306
313
314
318
321
327
333
340
346
347
347
348
350
320
423
391
367
356
360
360
362
367
379
392
410
425
433
415
375
353
347
342
349
349
349
356
358
363
369
369
369
369
369
333
452
410
388
371
373
376
380
386
396
410
424
433
437
408
362
338
332
327
334
338
350
357
360
366
368
368
363
363
362
300
475
405
362
353
359
364
372
375
387
400
414
420
414
383
338
320
312
316
318
322
324
324
324
329
333
334
337
340
342
282
453
397
350
346
350
357
361
365
378
393
404
413
418
388
352
336
337
337
339
343
346
349
351
351
353
358
364
346
387
385
396
362
362
365
370
371
379
389
399
409
414
395
351
325
316
317
317
319
319
320
322
320
323
319
321
321
310
318
376
357
324
325
326
331
332
343
355
374
385
393
380
341
316
312
312
314
321
322
324
331
336
339
337
341
346
297
446
412
365
351
354
357
361
365
376
391
410
419
423
396
357
341
341
345
348
350
352
352
356
359
361
363
368
368
359
354
414
397
370
375
374
377
379
389
399
416
423
430
416
379
347
343
344
346
352
355
359
363
362
364
363
365
367
305
480
423
377
366
369
372
374
380
389
405
419
429
430
397
357
339
340
341
343
343
344
344
348
352
350
351
351
354
273
466
408
349
348
351
352
354
358
369
386
401
409
407
370
333
319
319
320
324
327
328
329
333
336
336
338
339
341
275
456
404
347
343
347
348
353
358
366
380
397
407
409
377
338
322
322
324
328
329
334
337
336
341
344
351
353
355
357
306
466
417
375
364
367
369
373
377
385
401
417
424
432
413
372
352
349
352
348
353
355
358
362
364
366
365
367
370
316
437
415
370
366
367
371
373
379
389
401
415
424
421
383
348
335
335
338
340
342
341
343
348
347
347
349
349
348
290
446
398
352
355
355
360
362
371
384
403
416
424
417
375
344
336
337
339
341
343
343
350
353
352
353
354
356
286
470
420
358
354
355
357
358
364
373
389
404
412
415
381
340
328
327
326
330
331
336
340
343
340
345
351
349
351
350
356
292
471
419
361
354
355
357
361
367
375
388
402
412
415
395
353
333
330
331
333
334
336
337
339
342
344
343
344
346
319
385
403
372
344
347
348
349
353
363
375
390
403
410
390
350
327
322
323
326
330
333
335
334
340
343
344
346
347
350
281
471
422
357
355
355
359
363
369
376
395
411
422
428
397
354
339
337
337
346
345
347
353
358
358
358
361
368
364
312
457
411
375
373
376
378
384
390
403
416
428
439
432
400
369
351
353
351
355
355
363
367
365
362
363
369
347
390
406
392
361
362
365
365
367
379
391
407
419
422
403
359
339
334
334
334
339
342
348
347
344
345
349
345
319
411
380
351
350
353
354
360
368
380
399
410
420
401
359
335
331
331
334
336
338
343
350
353
353
354
356
357
323
421
417
376
359
359
364
363
368
375
387
406
414
419
398
359
339
334
337
340
344
345
350
351
356
355
358
356
361
360
295
454
410
365
362
364
366
365
373
380
398
414
419
418
384
350
335
336
338
340
342
347
348
352
356
357
358
361
336
403
403
385
360
361
363
365
369
377
391
405
416
419
399
357
336
332
333
340
342
343
342
345
348
353
351
352
356
354
300
432
396
356
357
362
363
367
375
385
402
416
423
417
380
347
339
337
339
340
340
344
343
345
344
348
347
348
351
334
365
402
378
348
348
350
354
358
366
384
401
414
419
406
365
337
328
332
339
345
350
354
358
361
363
357
360
366
352
370
386
387
358
353
350
358
366
368
380
391
401
411
396
362
331
329
330
331
341
341
346
348
353
351
353
360
363
293
457
415
364
365
368
366
370
378
390
405
421
426
422
385
346
335
336
330
341
337
342
340
340
335
349
350
347
323
440
414
356
348
344
339
344
354
352
374
382
456
343
343
312
297
295
305
292
299
298
303
306
311
304
316
318
263
406
401
336
326
325
333
336
346
356
376
395
406
408
381
340
326
329
328
327
331
333
334
338
345
349
347
355
362
300
474
444
383
372
379
376
376
380
387
402
416
425
428
399
360
344
342
351
350
357
360
361
360
363
358
351
352
337
370
385
385
352
356
361
362
369
376
389
405
419
428
412
370
344
338
341
347
347
349
351
349
353
350
347
347
347
268
452
392
338
340
341
342
347
353
364
380
394
404
394
351
318
311
310
312
309
311
312
316
321
322
321
325
331
264
437
415
341
332
334
339
341
348
360
377
394
403
404
376
336
319
320
320
324
329
331
336
340
346
349
349
353
316
403
428
377
353
354
355
359
367
371
387
401
410
417
394
347
325
323
322
324
325
327
329
329
333
336
338
343
307
407
385
369
345
344
349
354
359
369
381
395
408
416
396
351
329
327
329
332
333
333
336
337
336
336
337
339
270
452
410
346
336
339
343
347
352
367
381
396
406
409
378
338
327
327
329
332
334
339
347
353
352
354
357
362
296
472
432
371
365
367
367
369
376
387
403
417
424
428
398
359
345
344
345
348
350
355
357
361
359
359
364
359
331
408
403
360
363
364
369
371
381
391
407
419
424
412
372
348
337
341
341
344
344
349
350
353
352
352
356
314
421
402
373
348
352
355
357
361
370
382
396
402
408
383
342
320
317
317
319
322
327
328
330
328
329
332
314
350
365
366
330
334
337
341
348
358
375
393
403
409
392
349
327
323
326
329
330
333
335
337
334
337
341
342
286
412
388
340
342
345
346
348
357
369
385
394
404
395
355
326
320
324
328
329
332
337
340
343
345
347
350
283
448
408
355
355
359
362
368
374
385
401
416
425
424
386
351
343
343
348
348
354
360
364
365
364
368
368
302
451
419
369
367
370
373
374
383
395
407
420
428
422
388
357
347
348
350
356
360
362
362
361
361
368
360
367
393
398
362
361
362
368
371
381
397
411
423
433
411
368
339
333
339
340
348
354
358
356
352
351
356
270
469
424
359
357
357
361
367
375
389
407
422
434
422
380
345
335
336
337
344
345
356
352
352
352
355
305
429
440
376
356
359
363
369
374
384
399
415
424
426
393
351
334
334
335
337
339
347
351
346
347
349
351
276
453
412
351
348
353
356
360
365
378
393
411
420
415
376
342
334
334
336
341
345
352
351
351
353
356
344
355
385
391
354
359
362
363
368
378
391
401
412
415
394
350
326
321
323
325
326
333
339
340
342
345
352
300
462
412
379
366
368
372
374
381
390
406
422
433
435
402
362
350
352
352
355
358
357
362
367
365
364
366
366
294
451
416
361
363
365
367
369
375
386
400
413
422
414
370
338
330
330
332
333
333
337
343
343
342
346
346
290
443
414
357
342
344
347
348
354
362
376
395
405
404
373
338
321
315
319
327
330
334
337
339
332
338
339
335
321
385
388
346
347
353
353
364
369
381
398
410
418
397
353
324
315
319
319
323
324
330
329
327
329
331
329
309
383
369
332
330
336
339
344
355
372
387
404
411
395
352
326
319
322
325
334
345
345
336
337
341
345
258
463
405
346
348
351
355
361
371
385
406
426
434
420
368
340
334
336
339
343
352
356
350
349
354
355
264
467
418
356
358
360
361
365
373
386
405
420
430
418
365
336
334
336
337
342
343
361
357
359
363
366
317
410
483
386
364
365
365
371
377
386
405
424
437
438
402
357
342
340
340
342
346
349
362
355
354
356
357
280
460
457
363
352
353
354
355
362
374
389
407
417
417
378
336
324
323
326
326
326
333
335
344
338
340
340
343
259
446
417
346
343
344
346
353
360
373
389
404
416
414
379
340
329
325
328
329
332
336
339
337
337
338
340
285
436
417
359
338
340
343
346
353
367
386
402
411
412
381
337
319
320
322
326
330
331
332
338
342
343
345
347
332
333
442
391
357
361
364
367
372
383
397
415
427
434
412
367
344
338
339
342
344
344
348
349
356
353
357
359
354
312
415
402
355
357
359
359
366
372
382
400
412
419
401
358
331
325
327
330
332
334
340
343
347
347
347
353
292
464
427
369
356
357
360
365
372
384
402
417
429
429
396
353
339
338
341
345
348
351
355
361
362
360
363
366
284
478
445
369
367
372
374
377
381
391
406
420
429
423
383
346
333
333
334
336
337
339
342
348
344
349
349
312
410
421
376
350
352
353
356
360
371
386
402
414
416
387
346
328
321
324
329
332
333
332
338
341
342
341
342
327
354
388
383
346
349
352
356
364
372
387
405
415
423
402
358
338
334
338
340
342
344
345
351
353
354
354
356
353
301
438
406
358
360
363
365
369
378
388
405
419
427
411
366
340
335
335
337
340
343
345
350
356
355
355
360
336
379
427
388
360
362
363
367
371
380
393
411
423
426
401
357
337
335
337
337
340
342
345
350
351
350
353
357
299
461
424
370
357
357
364
366
374
382
396
411
421
422
388
349
331
331
334
341
340
343
348
349
350
347
349
351
281
465
426
359
352
354
358
363
371
382
396
411
421
418
379
339
326
327
329
333
335
336
336
342
342
341
342
345
331
312
425
379
340
341
341
345
348
356
370
387
399
407
386
339
313
310
311
313
315
319
319
325
325
329
331
330
331
334
322
312
420
377
340
339
342
344
349
358
374
393
407
418
398
353
328
327
324
329
332
336
340
345
348
350
354
356
359
362
313
458
440
385
366
370
372
373
382
391
405
420
435
438
414
370
346
343
343
347
352
352
353
352
359
362
364
366
366
302
437
418
365
368
372
372
382
387
404
424
439
448
431
386
349
341
342
346
348
350
349
348
354
358
360
362
362
356
300
445
399
349
348
347
351
353
363
376
395
408
420
401
354
320
317
319
321
321
326
326
330
335
340
340
342
345
267
462
455
354
344
347
350
354
360
373
392
409
424
427
389
346
331
331
333
335
335
340
340
344
345
349
353
354
357
360
304
428
479
375
356
353
355
358
361
369
386
406
422
425
401
351
329
326
329
331
333
338
340
340
344
343
346
349
351
270
433
416
351
354
351
355
364
364
380
393
413
424
418
376
339
332
330
336
340
346
347
352
353
358
359
363
368
315
448
454
389
360
362
364
368
372
381
398
417
427
430
402
356
334
332
336
337
340
341
344
343
346
353
353
355
356
352
291
461
409
357
354
356
360
362
373
383
400
417
425
413
371
335
328
329
331
333
338
341
344
350
354
353
358
364
297
487
440
379
364
368
375
377
384
395
414
432
443
447
414
370
347
344
343
345
348
349
348
350
350
352
353
354
353
275
477
441
356
345
343
345
348
358
367
383
398
411
412
380
331
319
316
317
318
318
322
323
323
329
332
331
334
337
303
369
441
372
341
342
344
347
354
366
383
402
415
420
398
350
325
322
323
325
329
332
336
334
343
346
347
347
350
351
265
465
412
349
350
353
354
358
368
378
398
411
420
414
373
334
326
324
326
327
330
333
335
341
345
347
348
354
349
316
415
398
353
355
358
361
369
379
393
412
426
436
425
378
347
340
344
346
350
353
353
357
360
361
363
364
367
281
493
453
370
357
360
361
363
371
385
402
419
428
428
392
345
330
329
330
333
336
336
338
342
344
348
348
346
351
263
469
446
353
345
341
346
348
354
366
382
400
410
411
374
329
313
312
313
315
317
319
324
326
328
331
338
341
344
346
348
269
466
458
358
350
349
352
355
361
374
390
409
422
426
399
353
334
331
334
336
340
341
347
348
349
357
360
360
361
363
300
466
455
381
361
363
366
366
373
382
397
414
427
432
407
363
340
336
335
339
340
344
346
355
355
356
356
357
360
276
466
429
359
357
361
363
364
374
385
398
417
427
427
386
346
334
332
334
336
340
340
342
342
347
351
349
349
352
321
378
458
383
351
351
353
355
359
368
381
397
409
418
399
354
325
321
322
324
327
327
333
334
337
336
339
342
341
345
345
345
258
455
404
342
343
348
351
355
360
372
386
403
410
408
370
331
316
314
316
314
317
319
322
322
323
331
328
330
335
321
306
397
376
334
336
336
343
346
356
371
384
400
407
396
353
320
314
315
318
324
331
334
338
340
347
347
350
356
341
352
416
401
359
363
367
369
375
385
401
416
430
437
422
376
346
340
342
347
348
351
353
354
357
360
362
364
367
366
301
465
474
383
362
365
366
367
372
383
398
414
428
429
402
355
334
331
332
333
336
336
339
340
343
348
348
350
351
351
286
450
404
352
352
353
356
361
370
382
399
412
420
410
368
335
328
325
328
332
334
338
340
344
347
351
352
351
356
273
468
432
361
355
358
359
362
369
380
397
410
421
420
389
348
333
329
333
338
338
343
341
348
350
349
347
346
351
262
469
425
353
347
347
349
351
358
372
390
408
415
411
375
334
321
320
323
326
331
333
338
337
343
346
345
349
351
320
374
454
383
356
360
365
364
370
378
391
409
420
428
410
363
338
334
334
337
338
342
342
344
347
352
354
353
356
357
287
472
437
368
359
362
364
363
371
382
395
411
417
423
397
350
331
325
329
333
337
341
342
348
348
350
354
355
357
279
453
420
358
355
357
361
367
372
385
400
415
424
422
381
342
331
331
333
334
338
337
344
347
349
350
352
353
268
459
414
353
354
354
357
360
370
384
401
415
423
416
371
336
328
327
328
329
333
331
339
344
343
345
347
350
275
439
410
352
351
355
357
359
367
378
392
406
414
412
378
339
328
326
331
335
340
341
347
347
345
348
352
351
299
408
403
354
352
358
361
365
373
387
404
420
427
417
375
342
335
336
340
343
346
347
351
352
355
357
358
356
285
439
415
355
355
357
360
367
371
384
400
411
422
412
379
345
330
331
334
339
344
345
348
345
343
346
348
278
452
406
354
351
351
354
360
369
381
397
411
417
419
379
343
329
332
336
339
337
347
350
349
352
352
353
270
477
419
356
352
357
360
361
367
377
393
414
425
423
382
347
340
342
340
340
339
345
344
349
351
353
352
264
470
426
357
358
361
364
366
372
382
398
416
426
423
381
345
337
335
338
338
339
347
350
351
351
352
353
276
441
411
353
353
355
356
363
368
380
396
411
419
415
376
338
329
326
330
331
337
342
342
341
343
344
316
406
375
367
344
342
343
351
357
365
388
394
408
414
385
348
331
326
334
335
337
349
345
345
347
352
340
342
401
388
346
346
351
353
361
369
384
399
414
420
395
347
321
318
320
323
325
333
331
332
334
336
332
268
434
386
340
342
346
348
353
362
378
397
414
423
403
355
329
327
330
331
336
339
342
351
353
355
356
357
302
448
445
375
359
363
363
367
373
382
397
414
425
429
398
354
336
335
337
339
341
343
346
347
349
354
355
356
358
360
277
461
420
358
357
360
362
364
368
381
394
410
419
418
376
340
327
326
329
329
331
337
335
340
346
346
348
350
346
307
403
395
349
352
350
357
360
368
380
397
410
418
408
367
334
324
326
330
334
336
340
342
347
347
350
349
353
270
479
432
361
353
355
357
361
367
377
396
412
426
425
389
344
329
329
333
335
340
342
343
347
349
354
355
357
361
295
466
456
376
357
362
363
366
372
381
397
416
427
429
401
353
332
328
331
332
335
339
342
344
345
354
353
354
355
357
275
459
413
353
355
358
361
365
372
384
402
417
426
419
377
337
330
329
332
332
336
338
340
342
345
350
349
350
353
285
463
435
366
351
354
357
359
366
374
389
407
420
423
395
348
329
324
327
330
334
335
339
339
343
345
347
350
345
310
388
390
348
350
354
358
362
369
382
400
411
419
408
364
332
326
328
329
330
335
336
336
339
343
345
347
348
348
276
445
401
349
349
353
354
358
367
378
394
408
417
408
366
331
323
323
328
331
332
334
337
340
347
347
349
350
312
412
426
375
353
358
358
360
366
374
390
405
421
425
400
357
332
330
330
333
339
339
343
346
350
348
352
353
351
313
380
392
352
352
356
360
363
372
382
398
410
422
413
371
339
332
333
335
338
338
341
348
350
351
353
358
357
294
433
409
361
362
364
367
371
378
392
407
422
429
421
375
341
333
333
335
338
338
341
346
348
348
348
351
351
272
446
409
351
351
354
357
358
365
376
393
409
419
416
373
333
324
322
322
326
328
329
333
335
339
341
342
348
347
291
453
413
361
356
362
362
360
368
380
391
406
421
427
404
364
339
335
335
340
340
342
341
349
351
346
348
354
304
422
427
371
354
351
359
359
364
373
384
403
415
420
395
345
329
323
322
324
330
333
338
345
348
348
348
349
277
432
411
357
362
365
368
371
378
388
404
418
426
418
377
342
335
335
334
334
336
350
352
364
357
368
374
312
474
407
389
372
366
363
364
362
356
378
423
412
411
379
339
316
321
330
319
336
337
339
338
337
330
333
337
336
372
338
343
347
351
361
371
375
396
410
419
397
348
337
326
330
331
339
352
345
341
352
350
343
342
360
386
347
350
360
361
367
380
388
405
412
420
396
355
327
325
331
338
343
353
362
358
348
351
366
290
440
402
360
364
365
371
375
379
394
403
422
427
412
380
345
338
340
342
348
357
358
352
355
355
358
304
412
400
363
358
358
368
362
366
385
401
416
422
411
366
335
329
324
333
333
340
354
342
344
342
347
302
446
398
371
348
351
352
361
368
369
383
389
407
410
378
336
316
314
306
318
328
331
324
321
326
327
273
451
377
342
335
342
345
353
361
379
391
410
423
424
391
355
339
340
343
349
360
367
361
358
359
365
308
485
416
378
370
371
374
377
386
400
412
427
435
440
405
362
350
347
348
350
356
364
355
352
352
356
322
399
405
375
350
349
357
358
362
370
381
396
407
409
386
344
329
324
323
329
329
333
339
346
341
338
339
340
273
459
406
350
347
346
353
356
360
369
384
398
407
409
380
341
331
327
327
330
332
339
345
341
342
344
342
345
289
403
385
346
349
351
357
362
371
385
397
407
417
412
371
342
332
334
335
340
342
345
357
351
350
351
353
341
337
416
386
348
352
356
358
362
370
384
399
409
416
398
354
330
327
330
329
330
331
339
346
355
346
346
347
352
288
463
413
360
352
353
357
364
366
375
389
406
415
420
391
353
339
336
337
337
345
345
348
356
355
356
355
359
331
413
392
390
361
360
363
372
373
381
397
411
423
429
407
368
346
337
341
345
344
351
354
361
358
357
355
359
352
328
415
398
358
358
359
363
366
376
389
403
415
422
410
370
340
338
339
336
339
336
340
342
346
346
344
347
351
322
394
402
378
351
350
351
357
362
368
382
400
409
416
400
363
338
335
336
337
338
340
343
343
350
351
349
350
329
372
404
390
355
356
363
360
369
376
390
406
416
420
400
357
335
326
330
334
337
341
341
345
348
344
346
346
348
287
407
391
349
352
354
355
360
363
379
395
411
417
412
371
341
329
332
336
334
341
339
348
352
348
349
351
355
276
461
407
353
353
353
355
359
366
379
393
407
415
409
372
338
329
328
332
337
340
337
341
345
346
344
346
346
303
433
409
368
349
350
355
356
362
373
389
405
414
416
389
352
333
328
328
335
339
340
345
348
346
349
350
355
288
468
407
364
358
360
361
368
374
385
404
417
425
422
390
350
340
338
339
344
344
347
349
351
355
355
357
358
307
456
425
376
359
360
362
365
370
381
397
414
423
427
395
356
338
335
336
338
337
341
342
346
348
347
344
350
338
330
392
385
345
350
350
353
358
369
381
397
409
416
399
358
330
326
328
328
329
337
338
341
341
335
348
346
348
280
415
394
347
349
354
356
359
363
383
392
410
418
411
368
332
317
318
323
324
328
331
334
334
334
337
343
335
317
405
388
347
346
347
352
359
368
383
400
411
421
403
355
327
324
329
331
334
332
338
342
344
343
344
350
287
452
441
364
346
349
352
352
360
370
389
403
416
418
383
340
324
325
325
328
330
329
337
341
346
346
345
349
281
463
435
365
352
353
358
359
367
380
399
412
422
424
391
356
339
333
334
341
346
353
347
357
356
351
353
321
413
396
373
340
351
349
357
365
369
382
399
411
422
393
350
330
329
337
342
341
352
353
353
354
355
361
291
506
459
381
362
364
368
372
378
392
413
433
447
450
409
366
351
350
347
348
349
358
359
356
358
356
359
265
486
422
353
351
353
354
356
365
381
399
416
424
411
362
332
327
324
329
326
327
331
337
338
341
343
335
290
421
391
342
346
347
348
354
361
379
392
408
415
398
351
326
321
322
325
328
328
332
337
342
341
341
347
293
449
413
372
353
355
358
361
366
379
392
407
417
422
394
351
334
333
336
337
342
343
350
355
357
357
359
361
291
479
444
373
363
362
364
369
372
383
399
413
421
421
385
345
333
333
332
334
336
338
341
345
342
345
347
346
273
413
396
345
347
349
352
356
362
374
390
401
412
399
356
327
322
320
326
328
332
333
336
340
338
339
339
335
297
389
384
337
337
338
345
350
361
373
391
401
408
393
347
316
313
315
321
324
332
338
340
343
346
349
352
268
456
416
354
355
360
363
364
372
389
409
425
434
418
368
337
328
331
336
341
343
345
351
354
354
355
360
306
435
462
380
354
355
356
358
362
375
392
412
421
427
392
345
327
326
328
333
335
341
343
346
349
356
353
356
357
356
283
468
414
358
357
358
361
364
372
388
406
422
432
417
368
334
327
329
329
332
334
337
342
340
343
351
352
352
354
354
272
462
414
353
357
357
361
365
371
386
403
418
426
420
375
337
332
334
337
337
343
345
346
346
349
353
352
354
357
357
273
478
450
363
353
356
359
364
371
380
399
412
423
426
391
347
332
331
331
336
339
344
343
345
348
352
352
355
358
358
284
444
416
359
358
362
365
370
377
390
407
422
431
423
378
343
333
336
339
343
345
347
349
350
350
352
358
357
360
363
314
422
472
384
358
360
362
364
369
380
394
411
423
430
405
357
333
331
331
335
338
338
341
343
342
344
346
348
347
349
352
274
478
450
361
353
354
356
359
366
379
395
412
426
428
394
349
334
334
337
340
340
343
347
347
350
350
351
357
357
358
361
336
365
459
392
358
357
361
363
366
374
390
407
420
427
412
365
334
330
330
332
336
338
341
342
342
343
343
348
349
351
352
335
349
416
393
352
354
357
360
365
377
392
408
423
433
417
370
341
334
337
339
343
345
346
348
349
348
350
354
356
357
358
340
339
452
392
350
352
353
356
359
370
386
401
415
423
409
361
332
326
328
330
335
338
340
342
344
345
346
352
354
356
358
360
272
487
449
362
356
358
361
366
371
382
398
418
426
430
397
352
336
336
335
338
341
342
345
346
345
347
351
351
352
352
356
270
456
420
351
349
351
355
359
366
378
396
415
425
421
386
345
331
330
332
336
338
341
342
343
341
345
350
350
352
357
296
456
437
375
354
354
357
361
367
378
392
410
423
429
402
357
336
333
335
338
342
342
344
345
346
349
352
349
351
354
357
267
485
441
356
354
354
358
357
364
375
394
409
419
420
382
339
325
324
325
327
329
332
333
336
339
339
342
346
347
347
352
268
468
439
356
346
349
353
356
362
374
390
408
420
424
392
351
332
329
331
333
339
342
343
344
346
350
352
353
357
357
289
427
410
357
357
359
361
366
375
386
405
419
429
421
379
341
329
330
332
335
335
336
338
338
341
346
346
349
351
342
303
452
393
347
347
349
352
356
363
377
398
414
423
407
360
328
324
321
323
325
328
331
334
334
336
342
344
346
347
351
262
469
422
350
350
352
356
358
366
379
398
416
425
422
383
344
330
333
335
338
339
342
345
346
349
355
353
356
356
355
297
430
407
355
358
359
358
362
373
383
400
417
424
415
374
339
330
330
330
335
336
339
341
345
347
350
351
353
354
301
422
407
357
358
363
366
372
379
394
411
425
434
423
377
344
336
337
338
341
341
344
346
346
346
353
352
353
355
335
345
460
388
352
353
354
355
360
368
382
400
414
422
405
359
330
327
327
329
330
332
337
336
343
347
347
349
352
289
456
429
364
350
351
355
355
361
372
386
406
418
417
393
349
328
326
328
331
331
336
341
343
344
345
344
348
277
465
413
358
348
348
352
355
363
375
389
407
418
422
388
344
330
329
333
336
339
341
344
346
347
349
351
354
278
476
447
363
350
352
356
358
363
373
391
411
423
423
387
343
329
327
329
332
335
336
339
341
347
347
350
353
332
347
449
388
354
354
360
362
366
375
390
411
424
431
410
364
340
339
340
344
344
344
345
348
350
350
351
351
355
273
446
415
351
352
355
355
361
365
378
397
410
422
416
376
339
329
329
331
334
338
343
344
348
346
348
351
355
279
434
409
359
357
359
364
369
378
390
407
422
432
428
386
346
334
335
337
342
343
344
343
344
348
347
348
350
335
334
448
388
351
353
356
357
363
371
386
405
417
425
405
358
333
331
330
333
335
337
339
340
344
347
348
350
353
336
338
446
389
353
353
355
359
361
370
384
403
417
423
402
358
331
327
328
329
332
337
337
340
347
348
345
349
350
276
466
420
360
352
353
355
358
364
374
387
404
414
416
383
342
325
322
324
329
333
337
342
342
349
350
352
358
323
413
421
391
362
362
366
368
374
384
399
417
428
435
412
363
341
336
335
340
343
343
345
346
348
352
351
352
357
340
341
426
391
352
354
356
359
362
373
388
405
417
426
406
353
325
321
321
324
326
331
334
337
340
343
346
348
351
354
293
439
463
369
353
355
358
360
366
375
391
412
426
433
400
351
331
330
329
329
332
335
338
340
345
352
349
349
351
353
259
497
439
355
352
352
353
353
359
369
386
405
419
423
384
343
329
330
331
335
339
343
346
349
354
359
360
364
368
308
455
457
383
364
368
369
376
379
384
400
417
427
432
407
362
344
338
338
340
341
342
344
351
354
354
355
355
357
283
451
416
363
357
361
361
366
370
381
396
411
420
424
387
345
334
334
338
341
342
341
342
344
349
349
348
347
318
391
400
380
344
346
344
350
353
357
369
388
403
411
390
345
322
319
322
325
328
329
333
336
341
347
343
346
349
291
429
455
368
353
354
358
357
361
368
387
404
420
424
399
349
332
326
328
327
330
328
336
343
347
350
355
355
354
313
405
409
367
362
361
371
373
382
395
407
423
430
420
375
341
336
336
337
337
340
344
345
350
349
350
353
326
394
393
389
351
354
357
358
365
374
386
404
416
421
401
354
332
324
327
329
331
334
340
344
339
342
347
349
280
431
406
354
357
359
363
371
378
392
410
428
437
428
378
345
342
342
341
348
351
354
358
361
358
358
363
311
432
457
386
357
358
360
363
365
377
392
409
422
426
390
343
324
320
323
323
322
327
331
334
331
334
334
333
266
405
385
335
337
339
343
349
355
371
387
401
410
398
352
319
312
310
314
317
325
333
332
329
333
336
339
262
436
397
348
347
351
355
360
368
383
402
419
430
421
373
338
329
329
332
335
338
342
353
346
348
349
352
327
379
432
388
354
356
362
364
370
378
396
413
428
435
403
352
333
328
331
333
335
338
343
346
355
351
352
355
358
270
490
452
364
356
357
359
363
371
384
400
419
430
427
385
343
331
327
328
332
332
336
337
343
348
349
350
351
356
289
475
431
374
353
357
359
362
368
377
392
412
425
425
393
347
330
326
326
333
335
338
339
345
348
348
350
354
356
283
446
414
362
362
362
366
370
378
392
410
425
436
425
378
339
328
329
331
333
336
338
339
340
342
345
345
347
349
295
423
470
366
348
348
352
354
358
369
388
411
428
434
400
347
322
322
324
325
328
333
335
342
348
350
349
350
354
257
526
447
360
355
356
362
365
370
382
400
421
434
437
394
346
335
333
334
336
337
340
343
347
350
354
355
355
354
358
277
476
443
363
354
356
359
360
363
373
387
402
416
419
386
344
329
322
326
329
335
337
340
347
351
347
350
351
323
410
376
386
354
357
359
364
370
379
392
407
416
422
401
356
330
322
326
331
333
337
341
340
345
347
345
351
283
481
424
364
352
355
357
361
361
371
388
402
414
418
378
336
321
316
320
321
323
324
332
335
334
331
332
336
254
476
399
342
338
344
347
350
364
367
385
403
421
422
386
346
328
320
316
319
318
320
327
327
326
331
333
338
267
471
405
354
347
352
360
362
372
389
405
422
433
433
393
349
338
336
335
336
340
342
341
346
352
350
352
351
336
355
428
388
360
369
374
384
395
401
418
434
443
452
425
382
349
342
338
341
343
349
350
358
360
364
369
365
368
307
428
404
366
364
365
370
375
381
395
410
423
435
426
382
346
335
330
330
336
339
339
347
347
347
347
349
345
302
434
388
350
352
357
357
364
374
390
406
423
430
414
363
330
325
325
325
331
336
338
345
348
349
347
351
341
301
469
393
353
356
361
362
369
376
390
409
421
426
406
355
326
323
323
323
325
328
332
337
345
342
345
346
291
424
434
366
346
350
351
355
365
368
381
399
410
411
384
339
320
319
322
329
334
337
346
348
345
350
349
351
285
430
398
356
353
356
361
365
372
384
400
415
424
420
377
343
333
336
339
342
341
349
349
347
349
350
352
266
483
420
355
355
359
364
369
371
378
396
409
418
415
376
341
336
338
339
339
341
345
343
343
344
344
349
274
457
414
360
358
360
361
363
365
380
396
410
419
411
369
336
330
332
334
337
343
344
342
343
344
345
278
418
402
355
353
359
362
364
369
380
398
409
418
409
368
342
334
334
338
339
353
349
346
352
352
348
345
379
395
364
366
371
373
377
384
398
411
421
427
411
363
340
336
337
340
346
349
344
344
344
347
295
440
418
364
344
347
349
350
355
363
377
392
403
406
370
331
320
319
321
324
327
338
336
337
340
343
337
298
407
387
348
351
353
358
359
368
388
394
400
409
395
351
331
335
333
346
342
349
354
355
355
348
358
299
438
401
355
363
369
360
366
378
380
395
416
419
401
373
343
353
365
343
359
369
369
384
348
355
340
381
378
386
353
357
368
377
375
385
399
410
419
421
395
353
337
333
335
341
350
349
345
345
348
341
323
393
379
348
351
354
360
363
369
381
399
407
412
390
350
331
332
335
339
349
351
345
347
348
350
286
445
394
357
356
360
366
369
375
387
400
414
424
415
372
348
345
342
344
350
355
363
355
356
359
360
313
456
406
377
363
367
372
373
379
390
403
416
427
426
398
358
346
344
342
349
361
361
352
354
356
354
302
420
393
359
357
360
363
367
376
384
401
410
420
408
368
340
334
333
335
341
354
352
346
345
348
348
291
423
387
350
352
354
356
361
367
379
394
407
414
399
356
331
326
327
329
332
337
348
344
341
342
345
333
329
393
378
345
349
351
354
357
366
379
395
405
413
391
347
325
324
326
330
332
335
337
341
351
347
346
345
349
288
457
404
356
351
353
358
360
366
378
391
406
416
416
387
350
337
334
335
338
340
343
347
357
353
350
351
356
329
404
385
382
356
364
364
366
371
378
392
406
416
421
401
361
340
338
339
338
342
343
346
358
352
352
356
356
307
465
411
375
360
362
367
368
372
380
393
407
415
416
384
346
332
334
337
340
342
346
353
354
349
349
350
350
293
420
387
348
353
356
358
362
371
384
398
408
413
402
365
336
326
328
330
332
336
339
348
350
346
349
348
347
317
377
381
349
352
354
356
361
369
385
399
405
413
399
362
335
326
327
329
331
335
344
346
338
338
343
343
284
444
388
355
348
349
354
358
366
379
392
408
417
412
378
344
335
335
337
338
343
345
353
346
347
348
351
300
449
401
365
351
354
356
361
366
377
391
407
418
419
391
354
338
335
337
340
342
347
353
354
348
349
352
352
317
400
393
359
359
363
364
371
379
392
405
419
427
416
378
351
344
347
347
346
350
364
353
350
349
358
321
436
385
378
355
357
363
366
375
380
395
408
416
423
389
351
334
332
333
338
344
357
351
347
346
349
339
319
417
384
349
352
357
358
366
375
388
407
417
420
399
356
335
335
334
336
337
340
350
344
345
346
347
312
412
401
369
352
353
356
359
367
377
391
407
418
422
393
349
332
332
331
339
341
345
353
349
346
349
350
343
325
389
389
355
356
359
363
366
376
388
403
417
422
402
364
341
335
334
336
338
345
354
351
347
349
351
331
389
388
384
356
359
362
368
373
382
396
410
421
424
398
356
339
338
339
342
346
350
356
350
348
349
352
300
447
415
366
354
355
359
362
366
376
390
405
414
414
382
344
331
331
333
335
338
341
348
349
343
345
345
349
285
426
392
352
355
355
358
365
372
383
396
410
419
410
369
340
333
334
334
339
343
345
357
351
349
351
354
336
374
378
385
355
361
362
366
370
378
392
406
414
421
398
359
337
335
336
339
344
349
359
350
347
348
349
304
439
403
368
352
354
357
359
364
371
384
399
408
407
376
338
324
323
324
326
328
333
341
343
338
339
340
343
278
441
390
349
349
352
356
359
363
376
394
405
414
410
371
340
334
335
335
340
341
345
356
352
350
351
355
343
369
384
390
361
367
366
371
376
381
396
407
419
423
405
367
347
345
342
346
350
354
365
362
353
354
355
356
295
429
399
360
362
362
365
372
378
391
403
414
422
413
369
341
332
333
337
339
344
351
352
346
348
350
352
284
443
402
355
355
357
361
365
370
381
396
408
415
406
365
336
333
331
333
337
340
344
345
352
354
353
355
359
344
365
395
393
365
366
371
375
377
386
398
412
422
427
413
373
350
346
344
346
346
350
353
356
358
357
357
360
351
349
382
394
358
360
363
368
369
379
389
402
412
417
401
362
339
336
338
340
342
344
346
350
352
350
352
353
355
289
440
400
355
357
359
362
364
370
380
395
406
414
404
365
336
328
328
332
335
336
337
345
348
346
347
350
350
313
396
394
357
364
364
370
374
382
392
405
417
423
410
371
345
339
339
341
344
348
348
351
351
349
353
353
311
453
388
377
355
359
361
365
369
378
394
403
414
413
389
350
335
332
335
338
339
342
347
348
346
348
352
346
328
393
393
356
358
364
364
369
376
389
403
415
421
404
364
344
340
342
347
348
348
353
357
359
361
363
367
310
477
427
378
372
373
373
376
381
393
404
420
427
426
393
355
345
344
341
343
347
349
351
355
357
358
362
361
345
385
379
390
358
359
362
363
368
377
384
396
404
411
389
353
331
327
328
332
335
339
346
345
345
346
348
345
325
387
393
355
358
362
365
369
377
388
402
412
418
396
357
335
334
333
338
339
347
350
352
351
354
357
314
420
408
375
360
362
367
365
369
378
389
401
415
413
383
345
333
338
336
338
342
347
344
347
346
349
329
386
374
379
353
353
356
362
362
376
383
405
413
414
387
344
332
332
333
336
341
348
344
345
344
349
339
337
387
377
350
350
353
351
360
369
378
392
399
406
384
344
331
328
330
332
343
347
344
345
349
352
320
426
410
380
356
358
363
365
374
382
399
412
423
425
391
352
340
338
339
345
354
356
355
353
356
359
286
488
419
366
359
359
362
368
371
382
396
408
424
413
376
345
340
336
338
334
346
351
348
347
345
350
350
290
435
392
352
354
355
359
365
368
385
397
410
413
398
361
333
330
333
334
339
339
345
352
350
353
351
354
349
324
396
392
358
360
363
364
368
378
390
404
412
417
402
364
341
336
337
340
342
345
354
352
347
351
351
350
300
413
397
356
358
359
360
367
372
385
399
409
416
400
359
333
329
332
336
340
342
346
351
357
354
352
353
353
298
422
396
351
356
358
360
367
372
385
401
413
419
402
364
334
329
330
331
333
338
344
346
344
344
348
350
282
449
401
358
353
349
365
362
371
381
399
407
422
413
364
346
336
331
328
334
335
336
339
342
344
349
349
300
417
444
374
354
354
355
358
364
373
388
400
414
412
377
338
324
326
331
333
333
335
341
347
349
346
355
356
269
466
427
362
360
361
369
366
370
383
399
411
423
414
372
342
335
332
335
339
340
341
349
348
349
348
350
352
281
451
409
359
353
354
360
363
369
381
397
408
417
413
377
343
333
335
338
342
344
348
347
354
356
355
357
358
357
285
442
406
356
361
362
364
367
373
384
400
414
420
406
365
339
334
335
337
343
344
346
349
357
359
360
358
360
334
385
407
387
360
362
365
366
374
381
394
408
414
420
395
352
339
336
339
340
341
346
348
350
354
355
356
358
362
362
309
476
414
376
362
368
372
375
382
388
404
414
420
423
386
352
342
339
340
339
346
341
346
350
350
348
354
353
357
303
407
395
358
357
360
363
367
372
385
400
410
416
404
366
336
328
330
337
339
343
345
352
354
355
355
358
360
296
469
418
370
367
371
373
377
382
392
405
418
424
418
379
350
340
339
343
347
347
349
352
354
355
356
356
357
323
415
406
375
359
360
364
367
372
381
392
404
413
415
388
350
336
334
334
337
338
341
342
347
345
346
348
354
307
449
393
368
359
362
365
367
371
384
396
408
419
416
384
348
335
335
338
341
343
350
350
348
345
348
350
334
376
381
386
358
361
365
369
374
382
395
406
414
416
391
349
332
328
331
332
335
335
341
344
345
344
348
349
323
403
395
375
357
358
361
363
367
375
391
403
413
418
389
349
340
338
339
343
346
351
354
357
355
357
358
359
310
413
397
367
367
369
370
376
382
394
412
423
427
414
374
344
337
340
340
343
349
352
355
352
352
356
357
296
430
399
355
357
360
363
367
372
383
397
410
415
402
361
338
332
332
335
336
340
345
349
348
348
351
351
294
438
390
357
356
358
361
362
369
377
389
401
407
403
364
336
330
332
334
338
344
348
353
350
353
351
358
300
437
393
363
358
363
368
368
374
389
400
414
423
414
378
348
339
341
342
346
351
357
351
351
350
352
339
359
367
386
356
359
363
366
372
380
392
407
414
416
390
351
336
335
337
342
343
348
351
354
352
353
354
355
292
438
394
356
356
361
362
364
371
380
393
405
414
403
364
338
332
332
336
339
340
343
348
349
349
352
354
336
369
386
382
357
360
363
365
369
377
388
401
411
415
388
350
331
328
334
336
337
340
345
351
346
350
351
350
296
448
395
359
349
356
361
361
369
378
390
404
416
411
377
344
336
332
336
339
344
349
352
354
345
351
357
301
461
403
372
362
364
370
374
379
390
406
419
423
419
384
349
338
338
339
341
347
351
356
357
352
352
354
351
312
406
393
354
357
358
359
362
369
380
393
405
411
393
357
333
331
332
334
339
339
345
351
352
351
352
355
314
439
399
374
357
359
366
365
369
377
392
406
413
415
383
346
335
334
334
336
336
347
348
345
348
346
349
309
436
378
373
352
359
360
363
369
380
393
407
414
416
382
349
337
338
339
347
350
352
356
357
355
356
359
360
297
436
402
358
361
363
365
369
375
385
400
410
418
403
363
341
337
336
337
341
341
346
348
350
349
350
352
334
363
389
381
353
358
361
365
369
377
388
401
411
412
389
348
334
333
333
334
337
341
345
349
349
349
349
351
296
404
394
355
356
365
362
368
375
386
402
413
414
398
366
344
335
337
336
341
342
344
350
345
346
347
356
299
409
402
361
356
357
364
368
375
390
403
413
423
410
370
345
339
338
344
347
354
358
354
356
355
359
310
443
425
374
356
357
361
365
370
380
398
412
422
419
379
344
331
326
334
337
343
351
349
350
353
353
286
462
424
360
356
359
361
365
369
382
396
409
418
409
365
336
330
333
336
337
338
338
340
346
348
349
350
355
288
452
447
369
354
360
364
369
371
381
395
410
425
422
381
344
336
333
334
341
340
342
346
350
353
351
352
352
293
451
415
364
348
355
359
361
357
389
391
407
419
410
383
347
328
337
344
345
338
345
344
357
357
356
360
362
356
330
389
395
369
352
360
365
373
378
388
403
413
422
400
362
345
339
338
342
344
347
348
351
355
354
357
352
356
304
463
406
368
360
363
363
369
373
383
393
407
418
413
378
344
336
338
361
365
324
339
343
349
352
353
350
352
357
291
427
395
356
359
363
368
375
378
392
399
403
417
403
365
337
330
332
337
336
341
351
353
344
350
353
354
356
358
291
447
407
362
363
365
369
374
380
390
403
414
420
410
371
342
337
336
339
341
345
346
348
349
352
356
357
358
360
343
362
418
394
361
365
365
366
375
375
384
419
416
425
399
358
333
333
340
336
345
337
346
353
357
354
345
355
349
272
423
394
346
348
354
351
358
365
363
390
403
414
407
366
342
327
331
334
331
334
337
334
345
344
351
351
351
362
293
423
401
360
363
369
369
371
379
383
401
411
420
406
366
342
336
331
332
337
340
342
344
347
350
355
354
352
356
286
434
411
360
365
367
368
370
379
390
404
416
422
418
376
348
343
343
344
347
352
354
353
356
359
363
362
360
367
297
471
431
371
364
368
370
372
370
381
393
408
417
416
381
347
335
335
336
336
339
344
341
344
351
352
355
357
355
359
291
437
405
362
358
360
365
366
371
384
399
406
416
410
375
345
337
336
338
341
344
347
350
354
357
356
355
362
336
396
391
393
363
367
368
373
375
383
396
411
422
426
401
359
345
343
350
348
353
354
356
357
354
355
354
355
354
360
345
367
395
390
366
362
370
372
373
379
390
401
409
415
400
357
337
331
331
333
336
339
338
339
343
343
341
345
348
326
380
376
378
349
353
358
362
369
378
388
402
415
419
394
356
340
337
340
345
347
349
348
351
354
357
358
359
361
325
429
412
384
363
366
368
371
376
382
396
408
418
419
391
353
340
338
339
342
344
346
351
351
354
355
357
353
356
357
305
462
413
366
354
355
358
360
362
373
385
398
407
409
374
340
328
330
332
336
339
343
345
350
352
353
351
351
355
306
460
402
371
356
362
364
368
373
381
397
409
419
419
388
352
339
339
340
342
346
352
350
356
359
358
361
364
366
308
462
404
368
364
365
367
374
380
389
404
414
422
416
380
353
340
341
345
349
349
354
353
356
359
361
359
360
364
366
300
465
408
366
364
365
367
368
373
381
392
407
418
413
381
353
345
339
344
347
349
349
354
352
355
359
355
354
352
356
288
462
402
357
356
360
364
365
369
379
392
407
415
413
380
343
331
330
332
333
337
339
342
347
347
351
351
354
355
341
373
382
389
356
358
361
365
371
378
387
402
412
416
396
355
334
333
334
338
343
344
348
345
349
353
353
354
358
360
292
477
416
364
359
360
360
363
367
376
388
404
412
410
374
341
332
332
333
336
340
340
341
344
346
350
349
350
354
348
342
403
390
357
361
362
363
367
372
385
400
412
419
403
362
341
335
338
339
339
346
346
350
352
355
351
353
355
313
454
396
378
359
363
363
366
369
381
393
409
419
421
393
353
336
339
339
343
344
345
350
352
352
352
354
355
335
392
390
387
358
360
363
365
370
378
391
404
414
418
394
354
337
333
336
338
343
345
345
349
352
354
353
355
358
311
448
412
370
356
358
360
363
366
376
389
403
413
414
383
346
333
332
332
336
336
341
340
347
351
350
353
356
350
335
390
392
360
360
362
366
371
379
389
406
420
423
404
361
339
334
334
339
343
343
351
353
353
354
354
356
315
460
396
379
360
366
368
373
377
384
399
411
420
419
388
355
341
342
342
348
348
353
357
359
359
357
358
358
305
451
408
367
350
354
354
357
362
369
382
398
406
408
375
340
329
328
332
336
340
342
347
347
350
350
353
354
339
380
401
386
362
363
365
368
372
379
393
409
419
424
401
357
340
339
339
341
345
351
354
354
354
357
357
359
303
448
402
363
362
365
366
369
375
385
399
408
416
408
371
341
334
335
337
339
342
343
348
346
345
348
349
351
289
431
391
350
351
352
356
358
365
375
390
401
408
396
360
333
327
327
331
334
336
340
344
347
351
352
354
355
317
426
404
375
359
362
364
369
374
382
391
409
417
420
395
356
340
339
339
341
343
348
356
355
353
354
361
362
331
447
388
391
366
368
368
371
374
381
399
410
422
422
399
360
341
343
343
348
346
352
353
357
351
352
354
354
314
419
397
364
364
365
368
368
372
379
393
402
410
400
360
338
336
336
342
339
351
352
352
352
347
356
342
322
390
381
351
358
357
361
368
372
385
401
398
410
384
343
325
321
326
327
330
336
345
347
347
345
344
356
295
464
405
368
354
356
357
359
367
377
390
406
413
415
375
347
335
334
333
339
341
339
349
353
350
359
351
356
301
465
412
367
361
363
363
368
371
385
395
408
418
419
375
347
335
333
333
337
340
346
345
347
353
351
353
354
358
357
307
408
406
364
364
362
362
371
370
377
401
404
415
409
365
332
332
323
326
330
329
336
340
341
348
346
340
348
317
402
396
374
349
348
351
347
353
353
370
381
391
398
360
325
302
302
319
314
306
326
316
319
332
329
333
337
297
387
464
376
348
347
359
369
381
393
414
426
445
469
406
374
358
358
362
367
370
376
379
382
382
384
383
376
361
415
417
381
381
382
383
385
391
402
416
425
429
404
364
346
340
343
344
350
351
354
358
356
357
358
361
313
460
405
375
362
362
364
368
374
380
396
407
417
415
385
352
339
338
340
341
343
349
353
353
354
354
357
308
460
391
374
355
356
359
365
369
377
390
402
409
408
377
341
331
331
335
338
341
344
349
349
349
352
355
356
301
417
400
358
359
361
364
367
373
384
398
410
415
402
363
340
336
336
340
340
345
345
348
353
355
355
357
358
330
404
405
383
359
362
364
366
369
377
389
404
414
418
393
355
339
338
338
340
346
344
344
352
356
356
356
360
362
300
432
409
362
360
361
371
371
382
393
408
418
430
421
376
347
340
343
345
349
346
350
352
356
353
357
361
328
446
396
393
363
367
366
369
372
385
399
412
419
419
388
351
334
332
335
341
343
344
346
349
353
349
350
354
316
424
412
377
357
358
363
363
370
380
393
405
415
415
384
346
330
328
332
334
336
339
342
344
344
343
348
346
308
430
403
371
351
353
358
359
363
371
387
400
409
413
377
341
327
330
337
338
343
343
339
336
337
333
340
343
343
266
442
397
348
350
352
355
357
369
383
399
416
423
404
362
335
331
332
337
340
344
344
348
354
355
358
360
363
291
475
417
351
343
346
353
364
386
399
421
440
447
444
401
366
351
346
343
344
343
347
346
354
364
365
364
365
368
299
482
434
380
373
377
378
378
382
387
397
410
417
420
386
347
337
338
339
342
344
343
347
350
355
352
355
356
358
292
422
399
358
358
361
368
363
372
382
391
403
410
401
363
333
327
328
330
332
337
336
343
347
350
348
352
353
296
461
414
376
363
370
373
373
379
390
396
412
418
420
392
359
350
349
348
352
351
353
353
355
353
354
357
333
363
383
375
344
346
345
350
352
359
369
383
394
403
381
343
332
334
336
340
336
336
332
332
335
337
343
347
297
436
406
367
354
360
365
367
373
383
393
405
414
418
384
347
334
330
333
336
340
342
346
349
349
351
351
338
340
373
386
352
357
359
361
365
375
384
399
409
418
396
353
331
330
327
327
327
333
338
344
344
350
356
340
382
362
388
356
366
367
370
372
391
402
413
423
426
407
369
354
353
356
356
360
363
368
367
365
366
370
303
467
411
376
368
373
376
377
384
393
406
415
419
411
368
336
329
330
330
330
331
335
339
337
339
339
343
270
441
397
346
347
351
356
359
365
374
389
402
415
405
366
339
332
337
342
350
353
362
361
358
359
359
312
459
397
379
363
366
369
371
378
388
403
417
420
420
387
354
341
343
343
347
354
358
356
356
360
366
320
469
395
386
364
367
372
373
379
384
396
406
418
416
381
346
334
332
332
335
339
347
343
340
341
346
344
292
404
389
345
347
352
356
365
371
388
401
412
420
398
352
332
330
332
335
338
344
348
346
349
351
355
337
360
396
386
352
360
360
362
368
377
390
408
420
420
390
350
333
334
333
335
338
347
352
358
356
356
360
359
296
414
397
357
361
367
373
374
391
391
405
414
427
416
384
366
356
365
369
372
379
384
385
377
378
378
371
352
395
410
370
371
372
374
376
386
394
409
418
422
396
348
328
325
324
327
332
335
342
342
337
337
342
336
285
422
377
334
336
339
341
345
351
364
381
395
401
377
334
316
315
318
321
323
328
336
338
338
342
347
340
318
396
385
352
358
362
366
371
378
392
406
417
424
397
354
336
336
336
340
341
343
349
351
356
358
357
362
343
387
385
397
366
368
370
373
377
385
398
412
420
426
400
359
342
339
339
341
345
350
357
359
355
355
359
354
334
388
395
358
362
365
368
373
379
389
405
413
416
391
350
331
329
330
334
336
340
343
346
350
350
352
351
351
286
440
402
357
360
360
364
366
372
382
401
411
421
404
366
336
333
332
335
337
341
344
349
355
354
356
357
361
290
454
415
366
363
367
370
373
377
391
406
417
428
414
375
349
341
338
338
345
345
349
358
359
356
361
361
358
328
392
400
367
366
368
374
377
382
394
406
417
424
402
356
333
334
333
338
341
340
345
346
348
348
349
350
353
285
442
400
351
355
357
359
362
366
378
393
407
416
400
356
331
327
331
331
335
337
338
343
349
349
351
353
354
288
468
415
362
357
358
361
364
370
380
398
411
422
418
378
343
336
338
339
346
347
347
350
355
358
358
361
361
319
442
398
384
362
367
370
374
378
387
403
413
423
425
393
351
338
336
341
344
344
347
347
351
350
351
353
348
313
396
395
355
356
359
364
368
376
394
410
422
428
400
352
329
323
316
339
339
342
343
347
348
344
346
346
300
416
440
372
354
355
361
364
370
379
392
408
422
420
381
341
330
330
333
333
337
340
346
346
350
352
355
339
335
418
394
358
359
362
364
368
375
390
407
419
425
395
349
332
331
331
336
341
343
346
352
355
354
358
361
309
457
420
381
362
367
366
370
376
383
397
415
423
423
391
349
337
334
335
343
348
351
358
358
357
356
360
364
296
462
416
371
366
370
374
377
385
398
411
421
430
420
376
344
335
336
336
338
341
341
343
343
346
345
347
349
283
473
425
362
352
352
356
359
364
374
388
403
415
412
370
334
327
327
330
332
335
337
342
345
349
354
354
354
356
332
376
433
386
357
360
363
367
371
378
388
405
418
425
393
349
332
331
333
335
339
341
344
345
348
353
355
356
356
356
319
404
426
378
356
358
362
364
366
375
390
405
418
422
389
347
330
326
330
333
336
341
343
344
344
347
354
352
352
353
353
287
423
398
352
355
358
361
371
376
385
403
412
424
414
373
342
335
333
337
342
346
348
351
351
355
361
360
364
361
335
393
425
387
360
361
365
371
373
382
395
411
422
426
395
349
331
328
331
333
337
340
343
344
344
346
353
353
352
354
356
279
451
412
358
359
362
363
367
375
384
400
417
426
414
372
338
331
331
332
336
339
343
347
350
349
353
357
356
359
359
340
377
399
387
358
361
365
363
372
378
391
407
416
422
406
365
340
334
333
336
341
344
353
358
365
368
370
368
366
365
289
474
417
365
361
363
370
373
382
390
405
417
423
416
374
337
327
327
330
337
343
346
350
351
350
351
352
351
348
351
354
283
478
427
366
362
365
367
367
370
377
388
405
417
419
385
347
336
333
334
336
338
338
339
341
343
348
351
354
354
346
348
390
395
358
360
364
365
369
375
391
403
417
424
407
365
342
339
339
340
342
342
346
351
355
355
355
357
359
298
454
405
365
361
366
370
376
380
392
403
419
427
419
380
342
327
326
326
328
335
336
342
351
356
359
358
356
356
284
445
402
351
355
362
367
372
379
391
405
420
427
420
379
348
341
341
344
346
347
348
348
350
356
357
358
362
355
329
416
399
360
363
365
365
372
378
384
404
414
419
402
360
336
333
332
336
338
341
344
349
350
352
352
354
356
295
415
401
357
355
362
364
369
372
386
398
413
426
411
370
341
338
336
341
344
351
348
352
354
354
359
359
340
391
387
394
364
364
370
368
374
383
395
415
421
429
400
357
339
333
335
338
338
345
348
354
351
350
349
352
283
486
420
365
361
365
368
369
370
379
392
403
413
408
367
333
327
328
333
337
342
344
352
347
348
349
350
337
324
416
378
343
345
346
350
357
367
381
398
412
417
391
346
329
326
329
330
333
335
341
347
347
351
354
359
297
468
420
366
358
362
365
369
375
388
402
419
430
428
390
355
342
342
342
346
346
351
356
360
364
365
368
371
309
446
415
372
370
374
378
379
386
396
409
418
426
417
377
348
338
336
341
342
345
348
353
353
348
351
354
296
470
407
365
354
355
359
366
369
379
391
405
415
411
373
336
329
328
330
335
339
340
346
351
350
349
352
353
278
459
407
353
355
356
360
362
368
378
393
408
417
408
368
338
330
332
335
337
339
342
348
351
351
351
353
358
288
448
409
358
358
362
365
368
374
384
401
414
427
416
373
345
338
337
340
344
348
349
349
358
359
359
359
364
301
472
419
371
364
367
369
372
376
387
404
414
426
424
389
351
338
335
339
343
345
348
355
357
358
358
361
361
299
427
403
360
359
360
364
367
376
385
402
413
422
409
366
337
330
331
332
334
334
337
341
349
350
351
355
359
289
470
419
361
360
361
362
365
369
380
395
412
424
417
379
345
336
334
336
341
344
344
353
358
355
357
359
357
290
433
402
356
361
365
367
372
376
387
403
416
422
414
373
343
337
337
340
344
346
352
354
359
357
361
360
332
423
387
391
364
364
365
368
370
379
392
405
415
417
388
346
329
327
328
334
338
340
344
346
347
348
348
349
290
453
414
365
359
364
368
370
372
378
391
406
418
415
379
343
332
334
335
337
339
340
345
349
350
352
354
357
288
460
413
361
358
362
365
369
375
385
400
413
425
415
371
340
331
330
333
338
343
345
351
354
357
359
356
354
323
387
400
363
365
366
372
377
383
399
411
419
431
409
369
343
337
340
341
349
353
358
362
363
363
364
368
303
472
423
374
368
371
375
376
383
390
404
416
423
416
375
341
331
330
334
337
339
343
348
348
345
344
344
339
310
403
388
346
348
351
353
360
366
382
398
409
413
391
346
324
323
326
331
331
335
342
345
349
345
344
344
345
262
453
402
350
352
358
358
361
369
379
395
408
418
409
367
337
333
338
335
340
343
347
353
358
359
360
362
365
302
441
411
365
362
367
369
374
381
391
406
418
427
416
373
341
331
328
330
332
332
337
337
339
336
338
339
334
280
423
383
342
345
348
350
355
364
377
394
408
417
396
351
328
327
328
332
333
338
340
345
349
355
353
355
357
306
451
439
374
359
360
364
367
370
378
394
408
418
425
391
346
334
333
335
339
340
345
344
350
357
356
357
360
361
279
482
414
359
360
361
365
369
375
383
399
413
422
416
371
340
333
334
336
339
344
349
350
355
359
358
358
360
356
306
439
403
361
365
368
371
373
378
390
404
415
423
407
363
338
333
334
336
337
339
343
349
352
351
349
349
351
276
469
418
359
357
355
360
366
369
377
390
403
416
412
375
335
325
326
328
333
335
340
344
351
352
350
353
358
283
463
417
362
356
361
367
370
374
380
396
409
418
417
380
345
337
336
338
341
345
349
354
355
357
354
353
359
291
437
415
369
367
374
375
376
385
393
407
417
427
422
388
355
347
345
349
350
354
356
357
355
359
360
348
370
367
398
360
370
365
372
379
387
397
412
420
425
405
364
346
345
344
345
344
347
351
345
340
340
344
298
430
408
372
347
353
357
359
363
371
384
397
407
408
372
336
325
324
327
328
333
342
340
344
345
346
341
297
408
389
349
354
357
360
364
373
386
402
416
421
395
349
333
333
335
339
342
349
355
355
356
359
363
303
463
428
376
364
368
369
376
379
391
404
417
426
422
384
347
341
338
339
341
345
353
355
354
354
358
354
301
402
398
357
360
364
365
372
378
391
403
413
423
403
363
340
334
335
340
343
347
353
360
356
358
358
360
284
461
420
363
363
366
369
372
376
387
402
414
424
413
371
341
334
333
336
340
342
345
351
355
353
357
359
302
457
418
374
359
363
367
371
371
380
394
411
422
419
382
347
337
333
334
336
338
338
348
349
347
352
355
331
393
379
386
358
362
365
370
375
383
397
408
419
424
393
355
335
335
340
345
353
354
360
360
353
354
357
355
287
432
405
357
357
362
363
366
368
378
395
409
418
399
354
330
326
324
327
332
335
