93
362
323
306
303
302
305
308
311
312
312
314
313
315
324
324
325
330
316
321
380
364
328
330
332
336
340
349
361
374
388
393
389
357
315
300
298
298
298
305
308
307
306
306
305
313
313
315
316
304
318
341
357
321
327
331
334
339
347
359
375
386
396
393
360
321
308
303
305
307
311
315
317
319
323
321
326
330
333
333
328
290
384
380
339
339
341
347
351
360
370
384
398
405
407
376
332
316
313
315
316
318
322
324
324
324
321
322
328
333
332
332
333
275
434
402
342
335
336
339
340
345
354
368
384
395
399
390
346
309
301
298
299
302
304
303
306
308
305
305
311
312
311
315
315
255
419
370
329
316
319
320
324
333
340
356
374
386
394
385
346
313
305
304
305
308
312
314
316
319
318
319
330
332
333
336
325
314
378
373
335
336
339
343
347
357
367
382
397
406
405
370
327
311
308
307
308
309
314
314
317
317
317
319
322
323
323
326
299
351
381
352
322
327
330
330
338
348
359
374
391
395
390
356
318
302
303
299
302
306
306
308
308
311
312
316
317
322
317
319
320
255
424
387
327
321
322
324
328
333
342
359
372
381
387
381
340
306
294
289
291
294
299
299
300
301
307
306
310
309
311
311
252
379
354
316
314
316
325
332
338
352
367
385
395
403
380
340
316
310
313
315
316
317
318
331
329
330
327
332
337
278
409
362
331
334
332
335
338
348
365
380
394
409
405
377
337
314
311
310
309
313
318
326
328
330
328
329
333
275
446
391
339
331
339
339
344
351
364
378
400
417
424
407
357
326
320
318
318
320
322
325
332
332
330
332
331
335
276
435
401
345
335
334
335
340
344
356
371
388
402
410
393
346
314
305
305
305
309
312
310
312
312
313
308
310
309
300
309
309
312
307
305
266
365
349
318
295
291
293
299
305
315
328
344
364
374
375
347
306
290
295
293
297
303
307
312
314
320
321
324
328
330
330
261
429
382
337
338
342
348
352
361
369
385
403
413
418
392
345
325
321
318
318
321
325
326
326
327
328
328
329
336
337
339
345
308
373
407
361
332
335
331
336
340
351
365
384
398
408
402
363
328
311
309
307
310
311
313
317
317
320
319
319
325
325
326
325
327
252
430
386
330
327
327
332
333
341
348
366
383
395
401
383
337
310
301
300
303
307
310
312
311
313
313
320
321
321
324
308
316
370
358
324
328
329
334
339
344
357
376
389
400
394
354
315
302
302
302
304
308
311
316
318
320
323
324
323
324
327
257
435
391
332
331
332
335
338
346
355
369
387
400
406
386
342
309
305
304
305
308
314
318
319
322
324
321
324
328
311
327
377
358
330
331
333
335
341
349
362
377
393
402
394
353
316
307
307
306
309
311
316
321
321
323
322
324
325
253
416
381
328
328
329
333
337
344
352
368
385
397
400
374
331
308
305
303
303
307
308
312
318
319
319
321
326
302
339
367
349
324
326
328
331
339
346
359
374
389
396
389
349
314
305
305
307
310
312
320
320
319
320
322
322
268
359
368
327
329
333
337
341
349
362
376
387
396
397
363
323
307
305
305
308
310
314
314
316
320
321
321
325
311
317
337
353
323
320
323
326
330
338
350
365
374
381
377
345
306
291
288
290
293
294
298
302
307
306
310
314
298
334
330
348
319
319
327
335
338
349
363
376
390
399
392
353
318
308
306
311
313
315
313
316
319
325
322
330
329
299
363
373
362
332
333
339
343
351
358
374
389
404
410
403
361
326
316
315
317
320
321
325
327
327
327
330
332
334
336
295
382
392
353
333
336
339
340
346
354
367
383
395
400
392
351
317
306
306
308
309
311
314
313
314
317
324
321
325
329
321
290
372
366
326
326
331
333
338
347
358
373
386
394
393
358
314
297
296
295
297
300
304
301
302
303
299
299
306
302
229
386
367
315
320
324
330
338
350
360
378
399
408
414
386
346
320
316
312
315
314
317
318
317
323
320
322
325
324
323
262
355
369
322
319
325
329
331
339
349
363
377
387
391
364
320
303
299
304
307
310
312
313
315
316
323
320
326
329
311
317
370
362
322
326
328
335
339
346
357
373
387
393
390
350
315
302
303
306
313
317
322
325
327
328
328
331
337
336
334
337
326
305
395
372
335
333
339
340
347
351
362
378
391
398
396
365
324
308
305
304
307
311
313
314
315
313
314
320
326
325
326
326
267
415
397
343
329
331
333
337
344
355
368
382
396
400
392
350
315
303
306
304
307
308
311
314
316
317
313
315
320
320
317
318
316
261
353
364
319
319
321
323
326
335
346
357
373
380
387
369
330
301
296
297
300
304
309
312
316
318
321
323
328
326
330
330
243
447
393
333
332
338
336
338
347
355
370
383
393
398
379
332
303
298
292
295
299
304
307
312
314
318
318
321
327
316
300
394
366
332
333
336
337
343
352
365
382
393
401
402
366
326
314
313
315
318
321
324
325
327
327
328
332
336
335
335
337
272
429
410
346
335
337
338
341
347
358
369
383
394
400
389
351
319
305
306
307
311
310
314
311
313
311
316
318
321
319
320
319
257
355
364
321
319
320
323
329
338
347
361
372
378
385
363
321
296
288
291
294
296
299
302
305
307
312
313
314
317
280
405
362
353
332
334
336
342
351
361
378
390
404
409
402
362
327
314
315
315
318
322
323
323
327
329
332
333
335
338
264
441
404
339
336
335
337
341
345
357
373
389
400
405
389
343
315
308
306
306
309
311
315
317
314
317
320
323
326
325
329
251
420
391
331
326
330
332
335
344
351
367
381
393
399
379
335
305
300
299
299
302
301
305
303
309
310
308
309
311
312
249
368
360
314
315
322
328
334
342
359
374
387
393
401
378
334
307
304
305
310
307
312
313
316
320
319
319
319
324
267
421
382
341
326
327
330
336
343
354
369
384
395
401
388
347
316
308
309
307
312
313
315
320
317
319
325
326
325
324
326
251
410
376
325
324
326
328
332
333
346
360
376
386
388
369
325
299
291
287
288
288
291
290
298
296
297
301
302
303
240
367
350
309
313
320
324
334
345
362
379
395
405
406
377
337
318
316
317
322
325
330
333
335
339
338
342
345
340
310
401
384
345
347
348
351
356
365
379
394
409
417
413
374
331
319
315
317
320
320
322
326
326
325
327
334
330
333
333
321
311
393
365
329
333
332
336
340
350
360
375
390
398
394
358
317
305
302
304
302
306
310
310
315
313
316
317
318
317
319
320
321
326
324
325
325
318
279
375
359
319
322
323
326
328
339
350
360
372
378
380
364
323
295
288
286
283
284
287
291
290
295
296
299
296
297
300
302
300
235
374
347
305
304
307
313
317
329
342
362
378
394
401
378
338
311
311
313
318
324
328
335
336
344
345
349
350
349
353
295
446
421
363
350
349
352
353
360
369
383
399
413
418
404
358
326
315
315
317
318
320
320
324
323
323
328
327
327
331
327
278
387
373
328
332
334
335
342
347
359
375
386
397
400
360
316
299
290
288
287
289
290
290
292
296
298
295
296
296
303
300
300
305
287
307
346
338
306
311
310
316
326
328
340
354
369
380
376
349
310
286
281
276
280
276
283
283
284
282
291
291
295
300
304
313
241
436
368
328
326
331
334
341
351
361
378
398
409
417
399
353
324
318
319
318
322
328
331
334
331
335
343
344
343
347
350
350
286
425
379
340
338
338
337
338
346
357
371
391
401
409
384
337
312
307
304
302
301
303
305
308
311
312
313
320
326
325
327
327
327
230
522
367
328
331
335
333
339
346
358
374
390
404
408
383
337
314
310
309
310
311
313
318
319
322
322
325
330
329
329
328
332
278
408
426
334
326
327
327
331
335
343
355
372
389
397
395
357
319
309
305
306
308
311
314
318
319
322
324
325
326
328
328
335
334
333
330
332
332
223
555
376
326
327
327
329
336
341
351
363
379
393
401
399
365
327
309
308
309
310
312
317
319
321
324
326
330
331
334
338
339
341
341
343
278
445
400
352
343
342
345
347
352
360
371
382
393
399
399
365
325
311
310
309
309
310
311
314
315
315
321
322
324
322
322
326
256
426
374
335
325
329
329
336
343
351
366
379
389
396
387
345
312
300
298
301
303
304
305
308
307
312
312
316
320
319
322
288
383
361
351
322
325
328
334
338
350
360
372
383
391
394
359
317
305
303
305
306
306
308
306
307
306
307
310
314
314
318
271
394
362
336
314
315
316
318
327
336
346
363
374
383
377
343
303
292
291
294
297
298
302
304
307
310
314
315
317
322
322
251
434
382
335
326
332
332
338
346
359
372
391
405
411
397
352
318
311
312
313
316
316
321
323
324
325
329
330
332
332
331
273
397
379
332
335
338
338
342
353
364
380
397
405
407
378
332
309
306
304
309
309
309
311
313
315
314
319
318
320
321
322
256
400
373
322
326
325
331
335
342
355
372
387
398
401
377
335
313
309
308
310
313
319
320
322
326
321
324
329
331
330
328
328
262
431
386
328
320
317
320
323
330
336
351
363
374
378
371
327
293
280
279
274
278
281
278
277
280
283
288
286
286
291
293
230
357
336
302
306
313
323
332
344
359
375
396
405
412
391
341
319
315
315
316
320
322
323
324
324
324
328
334
334
334
336
321
276
475
353
328
330
329
333
334
344
356
374
394
404
409
373
330
315
311
311
312
310
314
317
319
323
328
325
325
327
329
226
512
365
323
326
326
330
335
343
357
373
392
406
413
386
334
311
305
304
305
307
309
314
317
318
322
323
323
323
325
327
274
423
407
339
322
322
327
331
336
348
360
374
388
397
398
358
318
306
304
304
303
307
310
313
316
316
319
321
323
320
322
322
231
492
375
320
321
321
324
328
334
345
355
369
383
392
384
339
307
299
298
299
300
306
306
312
314
312
314
319
319
320
319
317
264
419
362
323
325
327
331
334
343
354
367
382
391
400
377
330
308
305
304
306
309
312
316
318
321
322
328
329
329
331
331
251
463
382
336
334
335
339
346
352
365
380
396
408
413
406
359
327
320
317
320
320
324
328
329
330
332
336
337
338
341
317
357
359
370
339
340
340
343
345
352
362
375
385
389
391
361
318
301
299
299
298
300
302
304
304
307
310
310
308
316
299
314
323
349
312
317
313
318
326
335
343
357
371
374
376
350
309
291
288
290
293
295
298
301
302
306
304
306
311
313
247
372
346
310
306
306
310
317
324
337
351
367
378
388
372
328
302
300
306
307
312
316
320
322
325
329
328
331
331
332
237
494
375
327
326
331
335
340
346
357
372
387
399
404
381
336
314
310
309
309
308
309
313
313
320
317
317
321
315
245
430
357
318
319
319
325
330
337
350
364
377
386
386
356
313
298
297
299
304
300
306
310
313
311
313
315
318
301
312
391
347
323
322
325
330
333
343
353
366
379
385
384
347
307
298
299
300
303
305
306
310
312
315
316
318
321
262
417
380
334
323
327
330
335
342
350
364
380
391
403
395
354
324
317
318
318
323
324
327
325
325
330
329
331
333
304
366
361
362
334
335
337
342
347
355
368
379
390
395
391
360
323
310
310
313
312
315
315
313
316
318
316
320
321
294
356
325
344
309
310
311
306
316
310
326
345
347
354
354
323
280
285
271
284
294
305
313
318
318
324
325
335
337
255
487
439
348
345
336
348
350
363
367
383
402
412
419
406
357
325
319
317
316
319
320
319
319
322
321
329
314
314
229
458
363
320
322
318
324
329
341
337
364
379
393
387
358
314
305
300
300
295
301
305
309
314
315
311
319
316
222
454
369
313
323
323
328
326
340
351
373
378
387
395
367
321
302
300
303
305
309
310
312
321
320
321
325
319
274
402
371
328
332
332
337
344
353
368
379
391
398
397
363
322
311
311
312
316
317
320
324
327
328
330
332
290
400
358
353
334
333
337
342
347
358
369
380
388
394
385
343
313
305
304
305
308
314
315
317
315
317
317
315
272
322
357
315
318
319
324
327
337
348
358
371
375
373
347
313
301
300
302
305
302
308
309
308
310
311
313
261
394
351
324
314
315
316
319
327
332
341
355
365
364
356
315
289
284
285
288
292
300
307
306
309
310
313
289
367
345
341
322
321
324
331
333
348
360
367
386
390
378
340
310
303
305
305
303
312
314
318
318
322
322
308
320
331
355
322
326
326
334
337
347
358
376
385
389
376
339
310
303
304
303
306
311
314
315
311
312
317
285
385
339
333
316
316
319
323
331
339
353
368
377
382
360
323
298
293
295
296
301
307
311
312
312
316
319
266
378
355
325
324
329
334
339
345
359
374
383
392
390
359
324
307
298
295
296
296
300
306
305
309
311
315
267
369
357
325
329
331
333
337
344
351
366
376
383
377
344
305
293
289
295
295
302
308
312
308
310
314
311
283
328
349
317
316
318
319
325
334
346
360
370
376
370
334
305
298
299
301
301
309
316
316
315
318
322
308
340
333
356
331
336
338
342
349
358
369
383
393
401
384
345
317
312
311
315
315
321
326
327
325
328
328
288
403
356
347
332
334
338
344
351
358
371
388
395
398
371
334
313
308
310
313
311
317
318
321
321
323
324
287
385
346
342
326
328
331
332
341
348
360
372
383
381
355
316
297
287
285
288
286
290
299
296
293
297
301
256
384
335
317
306
309
311
318
324
333
350
365
372
373
343
307
288
288
289
292
295
298
306
306
303
311
318
275
388
344
329
318
320
325
325
335
344
357
374
382
385
362
320
303
298
295
297
298
303
311
312
313
316
318
314
299
329
352
322
326
332
337
346
353
366
381
396
404
390
352
324
314
314
315
316
319
321
324
329
325
330
330
290
396
353
342
324
327
329
332
337
344
357
370
379
379
358
316
293
287
284
285
287
286
287
288
289
288
291
290
241
372
327
286
265
271
276
285
291
304
320
339
350
352
327
290
274
272
273
277
284
288
291
298
301
304
308
306
251
390
348
314
318
322
327
335
345
359
374
392
402
400
377
336
321
320
321
325
327
332
336
339
346
343
344
346
302
431
384
365
354
353
356
360
365
374
384
395
405
402
378
337
314
306
303
301
303
302
302
301
303
290
283
280
249
353
311
301
282
285
290
288
297
308
324
339
347
353
330
295
271
266
267
268
274
277
281
283
289
289
294
300
256
401
354
329
317
324
328
339
345
358
372
388
400
404
378
334
316
313
315
318
321
323
326
332
334
334
334
336
339
293
396
378
343
345
345
345
351
360
372
388
402
408
398
359
324
319
315
315
316
316
315
326
326
331
330
334
336
293
376
372
339
340
344
345
352
358
370
384
396
405
395
352
322
307
306
305
308
309
309
310
313
315
312
311
310
284
349
332
330
306
305
303
304
308
314
326
337
347
349
329
285
256
249
244
243
243
246
247
255
257
257
256
260
248
264
278
296
269
269
274
280
288
297
313
333
346
354
340
301
278
275
273
280
287
293
299
309
311
311
317
320
276
401
364
345
340
343
348
355
364
374
386
404
412
408
379
343
324
319
321
322
323
324
334
334
335
336
338
336
319
353
368
332
331
330
328
329
335
345
361
374
379
359
321
292
282
276
278
277
278
286
281
282
284
290
288
271
313
334
305
312
316
321
328
336
349
364
381
385
371
336
312
304
307
309
312
319
327
331
330
336
339
328
340
351
373
347
349
350
353
357
367
382
396
408
412
391
351
328
322
322
320
320
323
330
328
328
327
329
307
368
348
355
338
343
346
348
356
363
379
393
405
409
380
343
325
317
318
318
323
323
332
325
325
324
326
282
417
357
339
330
329
336
336
347
351
366
378
384
381
346
308
292
288
287
290
294
299
306
303
301
304
306
256
395
347
314
311
314
314
317
327
338
350
368
379
376
344
308
295
296
295
300
303
310
315
312
315
316
315
273
402
361
328
326
326
330
336
347
359
370
384
390
384
345
313
302
299
304
305
314
325
322
319
322
325
323
305
341
360
330
333
331
335
340
348
362
376
386
393
374
336
314
312
312
315
322
331
341
340
338
343
345
330
350
392
374
347
348
352
354
359
366
379
396
408
410
381
334
314
308
307
305
303
308
317
311
306
307
308
294
308
329
331
303
307
308
310
318
323
336
356
367
372
348
304
284
281
280
282
285
287
297
295
294
295
300
290
310
320
334
307
313
315
315
322
331
343
363
379
379
354
319
297
290
293
296
296
302
311
313
311
311
320
289
376
345
345
328
329
333
336
345
353
369
386
399
400
368
328
315
313
311
312
313
317
324
320
318
318
320
278
400
350
330
322
323
326
329
335
343
355
372
382
378
342
307
294
289
287
289
293
297
307
302
304
305
308
266
395
345
327
314
319
323
331
341
349
365
381
393
391
357
323
309
309
313
317
321
324
332
332
334
337
343
292
430
380
355
349
355
360
363
370
381
396
413
420
415
377
344
332
327
326
328
329
332
341
340
337
339
340
312
385
352
355
339
343
342
346
352
360
374
390
397
400
374
333
316
310
307
307
308
312
321
318
314
317
320
303
327
327
343
318
324
326
327
334
341
352
366
374
376
350
313
290
288
284
284
289
294
303
305
297
304
302
299
273
322
332
303
307
311
314
318
330
340
356
367
373
357
319
292
287
281
284
285
289
291
300
297
299
300
302
247
379
338
307
306
306
310
318
323
337
353
364
373
368
336
306
293
295
293
295
303
309
320
322
319
323
326
306
365
344
356
336
341
344
348
356
362
376
389
399
400
378
341
322
319
317
317
321
327
335
334
330
333
334
323
354
337
369
344
348
352
354
363
371
384
398
407
410
382
339
321
313
313
314
319
318
323
327
325
324
325
328
272
409
364
327
329
328
334
338
344
357
375
390
396
387
350
318
308
306
306
310
311
317
326
327
326
326
331
317
353
344
361
337
339
341
345
351
357
370
386
392
397
367
324
303
299
298
298
300
304
305
311
312
309
309
315
261
398
345
318
313
316
322
325
324
332
349
366
378
373
340
307
299
300
302
308
312
320
329
334
337
341
347
338
358
355
379
354
358
360
362
366
378
396
410
417
421
394
353
328
319
319
318
319
322
333
332
331
326
326
328
308
340
358
330
335
336
341
344
356
372
384
398
397
378
344
319
308
308
306
312
316
321
328
325
324
325
329
319
327
365
359
330
332
334
339
345
355
368
388
399
408
382
338
314
312
310
309
310
313
317
324
323
325
327
329
268
432
383
341
331
326
328
331
334
347
361
378
387
381
340
300
289
284
284
282
286
286
290
296
294
293
292
295
232
377
338
301
301
301
306
312
322
333
351
369
376
365
324
296
292
294
292
299
300
305
313
317
315
322
330
309
362
355
355
336
337
338
339
347
358
376
389
403
405
377
339
320
318
310
313
312
311
320
321
315
318
318
316
294
323
345
320
328
329
337
340
345
360
373
389
394
377
341
320
315
312
317
318
323
331
337
332
332
332
336
278
432
385
343
340
341
344
349
357
368
382
399
409
399
358
326
315
311
311
311
315
317
328
326
326
328
334
271
439
388
344
336
340
342
346
352
365
384
401
412
405
364
328
320
318
318
317
318
319
327
328
331
330
330
331
282
390
370
334
339
339
341
348
355
369
384
399
409
389
343
316
307
307
308
309
310
316
324
327
325
327
325
325
292
375
366
334
334
336
339
347
355
369
384
396
407
384
336
314
308
309
311
314
317
325
325
326
327
329
325
306
344
356
319
326
325
332
337
344
360
378
389
390
369
332
306
298
296
297
300
308
317
314
311
314
318
312
320
332
352
324
327
330
334
340
351
366
381
389
393
369
323
304
294
293
292
295
302
304
309
305
307
307
310
252
419
363
318
311
314
317
322
330
345
361
380
389
385
344
308
298
298
299
302
304
311
319
318
321
324
326
278
420
375
341
333
336
340
343
350
359
376
391
401
397
359
320
307
305
305
307
307
312
314
321
321
320
318
325
274
376
356
325
323
325
327
331
336
350
365
377
385
372
332
307
303
294
295
295
298
306
316
309
311
313
316
286
406
343
347
331
335
340
347
357
370
387
403
416
417
386
348
334
334
332
335
336
337
343
346
344
345
348
350
287
442
392
350
346
347
347
349
353
366
380
397
401
392
348
315
303
300
299
300
297
299
302
307
312
313
309
312
313
265
383
351
311
312
313
314
320
321
336
353
367
376
365
328
298
289
288
290
284
286
292
298
296
296
297
306
290
332
319
345
319
323
332
340
350
369
387
407
421
425
394
357
338
338
340
340
344
348
352
349
355
357
356
358
358
343
374
410
382
361
365
363
362
369
380
389
404
415
420
391
348
328
322
315
316
314
314
313
318
320
318
318
319
316
249
394
347
310
312
311
316
321
328
338
357
373
381
364
323
291
288
283
285
291
293
298
303
307
312
315
319
324
323
260
403
361
325
326
331
334
342
350
361
378
395
407
394
355
325
317
317
322
323
323
327
331
331
337
339
337
338
339
309
386
359
357
332
332
337
334
344
348
363
375
386
390
359
326
301
300
297
297
302
306
309
314
315
323
323
322
331
305
369
358
359
332
334
333
339
345
355
369
383
400
404
378
334
316
315
309
312
316
320
322
324
326
328
330
334
335
338
291
425
392
354
340
343
346
347
356
364
379
397
408
408
377
336
318
315
315
317
317
323
326
326
327
329
337
336
338
342
336
305
373
373
338
343
342
342
349
355
366
383
394
401
386
348
314
305
299
298
301
299
305
305
304
307
312
311
313
316
298
358
344
348
320
324
329
335
344
356
370
390
404
410
384
343
321
317
317
319
320
323
325
325
325
330
331
338
337
341
343
304
408
389
360
343
344
347
350
352
360
379
394
405
411
383
339
317
312
312
314
313
310
314
315
315
319
322
322
323
322
312
312
332
346
311
317
316
313
319
329
340
357
371
378
362
320
292
285
288
289
294
299
303
301
301
304
308
312
314
319
310
284
367
352
319
321
323
326
330
341
353
370
389
394
378
338
311
305
307
306
309
312
316
320
321
327
335
335
335
339
341
295
392
380
344
351
353
358
363
370
382
400
419
428
414
374
343
334
331
330
330
335
335
339
339
341
344
346
347
345
345
286
432
384
340
337
338
341
340
345
353
369
378
390
384
347
307
293
290
288
289
290
290
295
293
297
304
306
308
312
315
268
403
359
330
324
329
334
342
353
363
382
400
410
417
389
354
338
335
337
334
337
344
345
342
349
343
353
353
355
352
341
361
350
376
346
345
351
349
354
364
374
386
397
399
387
345
313
308
303
301
306
309
313
317
317
316
324
328
332
333
285
431
388
353
337
339
339
344
347
355
370
388
400
401
373
332
315
309
306
308
309
312
314
313
316
320
325
324
325
325
328
286
379
364
330
329
329
332
337
347
360
374
387
394
385
350
318
309
309
308
312
313
319
319
321
324
329
330
332
331
315
346
344
356
328
332
329
331
336
345
355
369
381
383
365
325
302
290
289
290
289
292
295
298
305
310
314
315
319
320
302
357
373
342
343
348
353
358
365
383
396
410
414
398
358
330
320
320
318
323
324
328
328
326
330
331
332
334
333
330
294
369
360
330
332
337
340
342
351
360
378
392
400
388
345
316
303
305
305
307
310
314
313
317
318
317
317
314
318
300
330
336
336
312
313
313
315
317
325
336
353
366
373
349
309
284
280
277
277
281
283
287
288
290
294
298
299
302
302
304
252
365
343
311
314
315
320
327
338
350
369
386
396
391
356
325
316
317
318
322
327
331
336
338
343
343
351
353
354
359
354
343
387
391
363
366
367
371
379
385
398
412
425
432
416
375
344
336
334
332
335
337
340
339
346
347
345
344
346
348
291
425
382
345
344
345
347
351
357
370
384
397
406
397
363
325
310
304
305
306
304
307
308
305
309
309
309
309
309
298
331
317
339
311
312
316
318
322
336
353
368
377
390
373
335
308
301
304
306
308
312
314
317
324
325
330
330
334
335
284
397
377
338
341
343
346
349
355
368
382
395
404
393
353
319
308
304
306
305
307
310
307
312
313
315
316
318
319
261
408
363
321
321
322
327
331
336
352
368
383
395
393
358
322
308
308
309
309
312
316
321
322
321
325
329
332
335
331
338
277
434
388
341
342
334
339
342
349
358
368
380
391
388
360
314
296
293
305
302
299
304
308
311
313
316
321
321
312
328
249
417
362
323
318
329
334
355
331
359
361
384
395
408
361
324
307
308
329
312
317
322
317
321
325
338
332
321
325
337
337
299
370
407
340
334
341
344
352
355
359
364
393
413
404
399
347
322
324
309
313
307
319
321
309
324
317
319
316
314
329
314
309
294
352
353
318
321
321
328
324
341
350
367
377
385
376
336
304
292
289
293
296
296
301
303
308
308
311
318
317
318
320
321
285
338
352
319
322
322
322
328
333
345
363
371
378
379
347
312
300
295
299
303
310
319
320
327
329
336
336
342
346
346
309
385
390
355
359
359
367
371
381
391
402
416
423
417
379
347
329
327
331
331
332
333
337
337
338
339
343
342
343
348
290
450
398
355
346
346
350
351
357
369
380
395
403
406
385
342
318
314
312
311
314
315
317
317
321
323
324
326
327
327
285
373
363
325
330
328
330
334
344
352
366
380
386
377
341
304
288
283
284
287
285
287
287
291
289
296
297
294
298
286
295
310
329
300
303
307
314
319
331
344
362
376
387
377
342
316
306
307
310
312
322
324
327
330
330
337
338
339
341
328
329
385
370
338
340
348
347
349
359
376
388
400
413
400
358
327
318
317
316
318
317
321
322
323
321
328
327
326
329
301
348
369
345
319
319
320
317
322
335
346
361
375
381
361
322
293
285
282
282
286
290
294
298
299
298
310
307
310
313
292
322
351
345
317
319
322
328
335
347
361
380
389
399
385
350
324
299
311
312
304
317
324
325
330
331
347
354
347
355
348
364
380
371
353
362
359
359
358
376
392
397
411
418
400
367
326
322
319
321
326
332
319
333
327
334
336
334
337
306
406
358
364
338
337
334
342
346
354
368
382
395
400
381
344
319
310
310
307
311
312
317
315
321
315
320
325
330
330
272
400
380
329
329
321
331
333
342
353
368
386
391
385
342
311
294
290
286
289
288
299
304
305
311
308
316
314
241
400
372
313
314
313
318
321
327
338
353
371
381
377
335
296
282
279
276
279
280
285
290
296
297
298
302
305
243
404
377
322
315
318
324
330
339
353
371
389
402
405
377
336
316
316
317
319
321
324
326
334
338
341
344
346
322
372
385
379
351
357
358
358
365
378
393
409
419
431
406
366
338
332
331
329
330
330
333
336
336
343
345
340
345
342
280
400
386
339
337
333
337
342
358
362
380
399
396
399
373
330
311
309
326
318
314
309
321
325
322
315
324
325
331
267
420
402
335
339
328
335
336
341
353
375
391
395
402
366
325
307
308
304
304
304
308
314
310
317
316
317
322
325
326
262
417
420
340
335
337
335
341
351
357
365
383
396
395
375
332
309
303
299
298
305
305
312
303
299
302
307
310
312
303
302
250
319
345
296
294
293
296
298
306
328
335
337
344
342
300
271
263
252
258
272
261
265
269
270
259
278
278
289
290
273
355
324
346
315
311
319
321
335
345
367
371
397
418
388
348
338
325
332
342
348
354
356
354
361
349
360
378
359
366
366
282
463
435
370
372
375
353
372
386
416
402
416
424
442
390
350
327
330
329
323
334
331
337
321
336
341
339
343
349
244
432
438
335
334
352
340
347
334
347
366
385
393
405
365
323
288
279
278
285
291
287
303
294
280
284
288
313
284
289
304
228
371
363
316
288
291
298
304
309
315
337
355
355
362
354
325
288
275
280
278
285
286
291
296
298
299
306
311
313
317
321
254
428
389
337
334
334
338
344
355
369
387
404
415
421
391
347
327
327
331
334
336
345
347
347
347
352
357
358
359
362
357
323
430
407
366
366
365
367
368
378
391
406
423
431
424
379
341
329
327
325
326
325
326
330
332
334
337
340
341
342
345
285
433
413
358
340
343
343
346
352
361
371
389
396
400
375
325
295
290
285
283
285
286
289
290
291
290
288
291
296
294
296
298
292
257
356
342
301
305
309
313
321
331
344
358
376
384
385
351
313
302
300
302
303
310
312
319
322
324
325
331
332
331
337
293
411
376
356
340
338
346
352
350
360
372
379
391
398
377
337
302
293
288
297
292
290
301
298
298
298
303
292
298
289
278
297
321
293
299
305
321
333
345
354
373
386
399
390
355
326
315
316
319
322
327
327
325
333
334
336
338
342
342
284
408
378
336
339
343
347
351
361
374
393
409
418
415
371
329
319
316
318
321
326
332
327
331
326
330
326
332
262
454
421
341
330
331
334
337
344
355
376
393
408
414
383
334
309
307
309
305
306
304
314
314
319
317
320
321
230
457
377
318
317
319
319
325
331
346
362
385
398
399
354
312
300
297
297
301
304
309
318
322
321
326
332
266
426
421
344
330
331
331
336
343
355
371
389
401
405
370
321
305
298
296
297
299
304
304
310
312
318
317
317
320
277
378
387
348
322
324
330
332
338
350
367
383
397
404
384
339
312
308
308
306
308
311
316
320
328
325
324
327
331
331
279
382
377
331
334
335
338
340
350
364
378
393
402
396
357
319
308
310
309
311
313
316
321
324
326
324
326
330
333
267
407
384
338
337
338
343
342
353
365
379
396
406
403
367
328
310
309
308
307
311
313
316
320
318
326
323
323
322
325
264
375
369
321
324
327
327
336
346
352
371
385
394
390
353
314
301
300
297
301
303
305
311
311
315
318
323
322
321
326
261
424
387
334
320
323
324
326
332
342
357
374
383
388
359
316
291
286
286
287
289
290
292
294
297
296
294
300
306
306
311
309
265
363
357
314
318
322
324
331
339
360
370
389
395
392
356
324
306
307
302
308
310
315
314
316
319
322
326
332
328
337
344
306
412
397
372
348
348
350
352
360
369
386
401
415
419
406
359
329
325
320
320
322
322
323
327
330
329
329
328
330
331
328
329
331
259
438
388
329
329
332
332
337
339
353
366
385
403
403
376
330
311
307
307
308
311
314
317
321
320
319
324
325
328
327
329
333
259
416
395
338
334
335
337
341
349
363
382
397
406
408
368
323
300
293
287
286
288
289
287
290
290
290
288
295
296
299
304
275
330
387
339
305
309
310
315
319
329
346
364
382
389
377
338
306
303
297
300
303
309
315
315
318
318
314
323
326
332
335
315
323
408
373
337
341
343
343
351
357
373
389
407
414
403
361
326
314
310
312
315
319
324
329
329
332
334
345
345
345
346
344
292
417
394
348
351
349
354
360
368
383
397
413
424
418
380
334
325
321
314
317
305
317
307
305
312
302
307
299
306
301
293
262
310
331
293
300
307
310
322
334
351
368
382
392
387
350
315
301
300
298
296
297
304
303
303
299
286
292
288
292
291
219
389
329
287
275
269
280
282
281
289
299
330
346
338
310
272
257
259
256
254
249
263
275
273
303
292
294
294
306
308
288
386
390
346
336
340
345
352
362
371
391
412
430
442
421
371
348
347
341
337
345
347
351
354
359
367
367
368
370
373
359
370
442
390
367
366
368
371
374
385
397
415
432
442
433
387
350
340
337
337
337
337
341
342
347
348
355
349
350
354
345
317
446
380
349
347
347
349
355
359
373
388
402
408
402
355
315
304
299
300
298
298
300
301
303
302
304
304
303
306
308
308
308
312
247
418
391
319
307
309
309
315
320
330
346
364
374
384
375
333
301
291
292
292
294
296
300
304
306
308
313
312
311
322
326
328
331
318
317
399
369
336
338
341
344
351
358
372
389
408
419
417
380
338
324
322
322
322
325
327
332
334
337
337
337
336
343
345
345
349
313
388
410
371
347
349
352
356
359
367
380
394
408
415
407
365
327
316
312
313
311
313
316
320
320
321
319
320
324
327
328
327
331
261
435
398
336
331
333
335
338
343
354
369
384
397
403
383
339
310
304
303
304
304
305
309
311
314
315
312
312
319
321
322
325
310
313
376
355
323
324
325
328
333
339
352
369
384
393
389
352
311
300
299
298
301
303
305
309
311
312
311
312
319
319
322
325
300
350
375
354
326
327
330
334
339
348
363
380
393
403
393
352
316
305
305
305
307
307
309
312
314
316
315
317
324
324
328
332
314
334
371
363
331
336
337
341
346
353
366
382
394
402
397
360
320
307
306
304
305
307
308
311
313
316
314
313
316
323
324
328
330
292
388
378
349
327
335
336
338
343
352
364
381
392
399
389
350
316
306
304
304
307
310
310
313
313
315
317
317
317
322
325
327
329
332
288
395
387
349
331
333
336
338
342
353
366
380
394
402
393
350
317
307
305
303
306
308
315
315
318
320
321
321
320
328
329
331
331
333
264
425
388
336
337
335
344
345
349
360
374
391
404
409
390
345
315
312
311
308
311
317
320
319
318
320
320
317
325
325
337
330
328
287
372
375
324
335
312
319
331
341
345
363
384
386
397
372
323
303
296
295
295
299
301
304
308
311
312
310
312
319
320
322
324
319
267
383
367
324
327
327
330
338
343
353
369
386
399
400
365
322
304
302
302
302
303
307
308
311
312
310
310
314
316
315
314
314
240
409
371
308
306
304
306
310
313
322
335
352
363
367
341
296
272
266
267
267
269
272
277
281
281
285
288
297
299
303
306
254
394
373
326
317
319
324
331
336
348
362
380
395
403
389
346
317
310
309
311
315
317
321
328
329
331
333
343
347
335
344
341
286
376
384
337
341
338
344
342
346
364
371
389
392
396
368
326
309
302
300
303
302
307
312
313
313
311
318
318
324
325
328
256
412
383
333
331
336
339
345
352
367
379
396
409
416
398
357
331
325
331
329
332
337
342
343
344
345
348
355
357
360
364
358
322
432
401
359
357
358
361
362
369
380
397
411
424
422
382
339
321
314
311
314
319
320
322
324
324
325
326
330
330
332
334
310
334
412
361
335
333
336
337
342
353
364
380
393
403
394
354
313
301
298
299
303
304
304
307
310
313
313
310
312
320
323
323
324
325
255
423
392
326
319
318
322
323
332
341
353
368
378
388
375
333
298
287
287
287
286
290
294
294
294
298
298
295
292
307
304
310
312
309
279
346
361
315
320
320
328
329
340
351
368
381
390
398
367
323
303
295
293
295
298
301
302
303
308
306
303
315
313
319
322
319
269
360
367
328
330
333
335
345
354
363
381
394
403
407
384
343
324
316
320
322
326
331
335
336
342
347
349
359
359
363
366
356
343
430
402
364
366
367
372
377
385
395
410
424
433
430
390
346
329
327
324
325
325
326
329
331
331
329
328
334
334
335
335
335
254
445
393
329
330
331
331
336
342
352
365
381
392
396
376
329
304
299
297
296
297
298
300
303
306
302
303
309
308
309
308
310
238
408
368
309
303
299
298
299
305
311
324
336
346
346
331
291
262
258
255
250
251
254
249
257
256
257
262
263
267
270
276
217
319
326
286
295
299
310
319
332
349
366
386
398
407
386
345
326
324
327
329
334
340
345
346
348
349
348
357
359
360
364
323
413
445
386
364
367
366
370
376
384
395
413
427
436
427
384
344
334
332
332
330
330
332
336
335
337
335
344
343
345
347
345
287
403
390
342
341
345
345
347
356
367
383
398
407
407
373
328
311
308
307
309
311
313
316
317
320
322
322
324
327
326
330
334
296
375
391
353
333
335
337
340
345
354
364
379
392
403
396
357
317
306
305
306
308
310
312
318
320
323
324
321
321
329
332
332
334
337
288
411
399
349
336
338
340
344
348
355
368
385
398
403
396
357
321
311
308
309
311
310
312
319
319
319
322
322
320
321
331
330
331
335
336
266
434
401
337
333
336
338
344
349
355
368
385
397
403
391
349
315
306
305
306
310
313
314
317
319
321
324
325
325
324
323
332
332
333
336
328
301
381
375
335
337
338
340
343
351
361
377
392
399
403
375
333
311
307
306
308
310
313
315
318
320
323
324
326
325
323
327
333
334
335
336
302
379
391
359
334
336
339
344
349
354
366
380
393
402
402
369
329
315
312
310
312
315
318
320
322
324
323
323
325
324
325
326
334
335
335
337
305
371
392
361
336
339
340
342
346
352
365
377
391
399
397
369
325
309
305
306
307
309
311
315
320
324
323
325
328
327
325
325
333
334
336
337
339
268
429
396
340
340
341
343
347
354
361
372
384
395
402
392
351
317
309
305
305
307
311
312
312
313
315
316
316
315
314
308
305
312
312
312
311
313
243
408
369
307
301
300
304
307
312
317
329
342
353
360
355
318
280
267
268
271
272
277
281
283
287
289
291
292
294
295
300
309
311
313
317
272
389
380
339
322
325
330
335
342
350
361
378
393
401
402
369
329
315
312
314
319
321
325
328
329
332
334
333
332
331
342
341
342
345
331
340
387
380
348
350
352
354
356
364
376
389
400
410
413
383
341
321
318
319
321
323
325
327
331
331
333
331
331
336
341
341
341
345
298
413
399
359
342
343
345
347
351
359
371
388
400
404
399
368
327
311
308
310
312
313
316
320
321
322
322
322
320
331
332
330
332
331
290
359
372
329
329
331
331
336
342
354
365
377
386
390
368
329
301
296
291
296
295
296
302
302
306
306
310
313
312
317
316
260
427
377
333
321
323
329
333
338
347
365
380
394
404
400
362
329
319
317
321
324
324
331
331
335
336
337
340
345
347
351
353
280
466
422
356
347
349
351
355
361
368
382
400
411
420
407
361
327
317
316
314
314
317
319
321
322
325
329
330
331
333
327
296
381
369
329
333
334
337
340
349
358
372
387
398
400
369
324
306
305
304
305
305
307
314
315
318
318
321
320
322
327
329
328
330
315
316
380
358
327
327
327
329
333
336
345
359
373
379
382
357
311
290
284
282
283
282
286
288
288
287
289
287
286
294
295
293
294
298
228
387
354
299
298
296
300
305
313
320
334
350
360
367
360
322
289
281
280
284
286
290
298
302
305
308
309
317
320
324
329
319
306
370
368
334
333
338
340
345
353
365
383
399
408
409
379
337
318
315
316
319
322
323
329
331
333
331
331
339
342
343
345
341
303
391
390
346
349
350
351
353
362
372
388
403
414
416
390
347
324
319
317
317
319
320
324
324
327
329
334
336
340
343
344
287
389
390
343
345
348
351
357
364
370
387
400
408
414
390
348
321
312
313
315
317
321
323
325
326
324
323
330
333
335
335
327
289
381
376
334
336
337
339
344
352
362
376
389
397
399
373
335
310
308
307
309
311
313
314
317
316
320
322
319
323
325
329
264
422
383
334
326
326
328
333
335
346
355
365
376
382
369
328
292
280
277
278
281
281
286
286
289
288
294
298
297
300
294
265
326
345
302
305
308
311
317
325
337
350
367
375
379
352
310
290
289
291
295
295
302
307
307
307
312
316
319
322
324
327
257
413
386
330
330
332
335
340
347
358
370
383
406
408
391
348
322
318
317
318
321
326
326
332
334
331
333
338
338
339
344
315
364
393
369
343
343
348
351
356
363
374
391
402
412
410
379
337
320
319
321
324
325
328
333
332
336
335
338
338
339
337
274
388
386
339
338
339
344
344
349
357
369
382
388
394
374
332
306
301
300
301
305
306
310
311
313
317
320
323
325
326
269
424
388
340
327
327
329
333
340
348
360
374
387
398
386
347
314
299
300
294
295
299
301
297
303
299
300
300
306
305
236
379
356
304
300
304
300
307
310
321
334
349
362
367
353
310
278
272
271
267
268
271
272
285
290
292
299
304
309
228
417
377
320
323
332
343
336
342
364
377
392
405
416
395
352
324
320
318
321
324
324
331
338
341
342
342
347
310
394
386
377
347
347
352
358
358
369
378
393
408
412
409
368
333
322
318
321
326
326
329
327
334
334
337
334
336
338
271
406
399
342
337
338
343
347
352
361
374
385
392
397
378
335
304
300
294
296
293
293
296
294
297
296
297
300
300
299
232
358
350
295
296
298
300
305
310
322
327
334
328
343
313
265
249
245
254
257
265
278
288
287
297
300
302
311
312
312
313
300
328
344
352
320
323
325
333
338
349
364
377
391
404
409
384
340
328
325
329
330
337
342
344
345
350
349
353
356
356
358
263
510
411
354
352
355
355
361
364
376
392
409
422
423
404
352
326
323
320
320
321
324
327
328
335
336
334
333
339
335
248
463
380
333
337
339
343
347
353
365
377
394
408
412
380
330
311
307
308
306
306
312
317
316
317
317
328
323
326
329
316
298
415
368
335
335
336
340
345
353
364
379
394
406
405
375
328
312
311
307
309
311
314
313
316
316
323
322
321
322
324
238
433
384
328
330
333
334
337
347
357
369
384
394
402
386
339
313
309
311
312
316
322
323
325
325
327
331
331
334
336
270
436
412
346
336
337
340
344
349
357
370
385
393
399
392
352
317
309
305
309
313
314
320
322
323
322
321
329
332
323
294
350
375
331
334
335
341
343
353
362
374
385
391
390
368
328
305
304
303
297
308
308
310
316
311
320
319
322
274
359
359
323
327
331
332
333
341
346
357
365
376
375
350
311
305
290
293
291
305
308
315
317
313
317
324
324
259
445
399
338
340
340
343
352
357
371
386
406
419
422
398
352
331
329
327
330
330
334
342
340
344
342
344
324
339
437
372
347
351
351
352
355
366
380
392
407
417
405
360
322
313
313
314
309
322
316
314
320
319
329
270
377
374
320
321
319
327
328
337
353
361
373
386
381
349
308
287
289
288
284
286
295
293
289
289
294
288
238
387
335
312
297
294
302
305
309
320
331
346
356
363
350
312
286
282
287
289
294
305
308
305
303
305
310
251
421
378
326
318
317
323
328
334
346
361
378
387
388
367
323
301
295
296
297
303
309
310
307
306
311
283
362
367
350
325
330
327
338
332
339
356
371
388
393
375
332
304
300
299
302
304
307
317
326
330
331
335
335
272
428
416
347
337
335
335
339
345
357
371
390
402
407
388
340
314
310
312
309
310
318
316
316
321
323
323
322
325
328
249
452
384
338
342
343
345
348
358
369
386
400
409
416
389
343
321
318
317
319
320
320
325
326
324
322
327
329
328
334
330
309
355
394
360
335
338
343
340
351
361
372
384
395
402
400
361
326
311
306
305
306
307
312
312
316
320
318
321
322
287
363
363
345
320
319
325
327
331
337
350
362
374
383
368
327
295
285
280
285
284
286
291
293
293
300
300
304
310
253
402
376
322
316
315
321
324
332
339
355
369
376
376
364
327
296
285
288
287
289
293
301
303
307
311
314
308
311
323
360
320
327
332
339
347
359
366
381
394
403
401
362
327
319
319
323
327
321
330
331
333
332
330
338
341
258
464
415
341
342
342
346
344
345
369
376
381
390
410
422
305
293
301
291
305
304
342
307
316
318
315
315
319
245
448
390
334
334
331
333
340
350
356
372
387
397
403
382
336
314
312
309
312
318
316
323
319
330
327
326
325
328
278
413
393
346
332
338
336
342
346
355
367
378
385
388
381
337
301
293
295
287
290
291
291
293
291
294
292
293
296
294
291
219
358
337
291
293
292
291
298
304
317
328
341
350
353
331
289
266
262
267
265
275
269
273
272
282
278
281
288
287
285
254
302
322
292
296
301
303
312
322
336
348
362
373
380
358
323
314
312
320
320
324
332
334
331
336
332
342
349
348
348
286
448
398
347
344
344
346
351
358
363
381
400
409
417
405
369
348
346
346
352
357
361
366
369
364
366
375
344
304
433
430
336
354
357
361
365
372
386
394
410
419
416
374
337
321
321
320
322
312
321
323
322
318
317
320
269
398
395
338
326
330
332
337
345
356
371
384
396
401
389
344
314
305
304
305
307
307
314
315
315
317
316
315
238
435
374
320
314
317
320
326
329
337
350
363
370
376
356
311
290
288
287
288
294
298
307
310
309
309
309
317
250
430
376
328
314
313
311
318
323
330
345
350
358
359
345
309
281
271
270
271
275
285
288
291
292
295
298
249
422
349
332
313
317
322
329
338
352
366
379
388
393
384
341
319
317
314
318
320
325
324
329
327
327
330
333
314
312
419
357
329
332
331
335
339
345
355
366
376
383
381
343
308
299
296
294
294
297
303
307
309
308
311
314
258
411
388
334
320
325
326
332
339
349
362
377
389
395
380
337
311
307
308
311
313
317
325
326
327
330
331
335
256
426
393
347
350
352
353
360
366
380
390
396
401
398
371
330
316
309
305
304
304
315
315
311
311
314
313
294
318
346
314
317
321
325
329
339
351
358
370
376
378
352
319
311
312
313
315
319
325
326
326
327
332
319
305
386
369
334
333
337
342
345
356
367
382
394
402
397
357
323
316
316
316
316
321
327
329
327
328
332
304
334
413
349
328
329
330
330
333
341
355
368
379
387
374
330
303
298
299
297
297
299
306
308
308
305
308
284
310
385
337
307
309
309
311
319
328
342
357
368
376
366
323
292
285
285
285
288
290
293
295
296
299
299
301
304
220
425
365
310
310
313
316
321
332
348
362
375
383
389
360
318
298
295
298
300
303
308
312
315
315
320
325
327
279
387
381
339
343
343
346
352
356
370
383
390
398
397
360
323
314
314
317
320
324
325
327
331
331
332
338
313
353
397
369
346
347
349
354
359
369
382
396
412
418
412
373
335
328
317
318
323
314
321
317
316
323
324
327
304
331
361
334
338
339
345
351
354
368
376
382
390
385
350
318
310
312
316
318
321
329
332
322
328
332
323
320
373
362
328
330
331
334
338
350
362
377
389
399
387
345
319
310
308
309
309
316
321
317
320
320
324
265
449
392
335
327
332
333
335
342
355
369
384
397
401
375
334
316
314
314
318
323
331
330
329
332
336
274
453
403
351
343
348
350
353
360
372
387
399
408
408
373
333
320
318
316
316
318
325
323
323
323
326
295
357
371
346
328
323
325
327
333
339
354
358
375
369
352
311
289
284
286
279
284
295
295
294
295
297
300
256
348
337
303
305
310
311
320
331
344
360
374
383
377
347
313
304
306
307
313
321
331
321
317
320
319
309
302
357
346
313
316
316
314
314
322
334
346
354
357
336
293
263
255
253
249
248
251
254
261
254
254
255
256
197
354
310
264
257
261
265
270
281
293
312
329
340
342
313
278
269
270
270
277
282
286
290
301
308
308
314
322
323
291
369
372
339
344
349
355
362
372
387
407
421
431
420
382
355
347
345
345
344
347
347
358
361
361
359
358
360
346
384
376
388
359
363
369
370
376
386
400
416
429
434
416
379
347
343
343
341
346
349
354
358
361
359
358
361
359
307
423
402
360
359
362
366
370
379
391
404
419
426
415
368
333
324
320
321
318
320
319
323
321
331
326
325
326
331
260
424
384
328
326
328
328
334
342
352
366
382
393
390
356
318
304
299
301
303
305
300
303
305
304
311
311
314
309
314
246
398
378
324
301
316
318
319
325
338
351
364
379
378
344
313
288
280
280
283
295
295
300
300
306
292
303
302
309
252
373
368
312
317
328
328
335
347
359
377
394
402
401
362
323
315
312
315
321
326
330
334
343
342
345
348
352
346
325
442
390
360
358
359
363
364
372
384
399
413
421
404
352
320
314
310
309
307
306
304
309
312
312
312
312
313
262
385
384
327
312
312
315
316
321
330
345
363
375
380
353
309
285
283
285
283
284
286
288
293
294
295
296
300
304
309
309
311
310
243
418
378
317
315
315
319
325
332
341
355
373
385
391
370
328
306
304
303
306
307
308
316
318
318
322
323
321
323
327
329
329
331
334
269
409
380
334
335
336
340
346
351
368
381
396
407
410
391
352
328
323
322
323
325
326
331
331
336
336
335
343
338
339
344
311
384
365
369
341
343
342
348
354
364
377
393
404
413
400
361
328
319
314
316
317
319
321
326
327
327
328
327
327
331
336
336
338
342
302
402
394
366
341
345
347
351
356
366
377
394
406
414
403
360
329
320
314
315
317
317
321
321
322
323
325
326
327
326
327
329
334
335
335
336
273
437
403
341
333
334
336
338
343
353
364
384
391
401
389
347
314
305
305
304
306
309
313
314
317
317
320
317
320
318
320
325
327
324
326
328
265
378
369
325
325
325
331
335
337
349
362
373
386
389
365
325
304
297
298
299
300
305
310
308
309
311
314
314
320
324
324
327
329
333
267
418
385
338
334
336
343
346
353
363
377
393
403
408
388
344
320
312
311
312
313
317
322
326
327
327
327
328
328
336
336
336
338
299
397
390
361
335
335
337
342
347
356
369
385
395
405
397
356
322
314
307
307
304
307
311
311
312
318
319
320
323
316
321
322
323
323
330
321
315
342
360
328
332
336
338
344
351
360
377
388
398
398
371
330
315
309
310
310
313
317
319
318
321
324
326
330
330
328
326
330
335
331
335
336
291
427
374
355
337
339
342
345
348
357
369
383
396
404
400
363
327
313
313
311
316
318
321
320
325
325
324
326
331
328
327
332
335
336
338
339
281
444
388
352
335
341
343
344
351
357
367
382
392
397
389
350
319
309
310
303
306
307
311
312
313
317
318
318
319
323
321
320
321
328
331
330
332
331
272
449
381
338
332
332
334
338
343
353
366
381
392
399
391
355
320
310
307
310
311
312
314
317
318
322
321
319
323
322
322
320
321
318
314
316
318
319
313
316
316
250
443
381
317
312
311
314
317
324
333
343
359
374
380
375
341
302
289
288
286
290
293
294
299
302
305
306
309
312
314
315
318
321
319
317
322
327
328
329
331
334
266
454
390
332
331
332
335
341
345
356
368
383
397
405
399
364
329
318
313
311
317
323
323
327
329
329
333
335
331
338
340
343
341
344
347
285
464
412
357
345
344
348
348
355
364
375
397
411
419
410
369
332
315
315
313
315
320
323
323
324
327
327
328
331
332
333
334
340
337
340
342
329
327
395
371
335
340
341
343
347
356
367
382
398
409
411
388
343
316
311
309
309
312
316
318
318
322
322
324
324
325
329
327
330
325
331
336
334
336
336
335
282
413
383
337
339
337
340
346
354
362
375
389
399
405
394
352
322
312
310
309
311
313
318
317
317
321
322
325
325
323
323
329
331
328
334
334
261
433
386
332
332
333
334
337
343
354
367
386
399
405
396
351
318
312
309
309
309
311
315
317
323
322
324
327
328
329
328
332
339
339
339
341
332
298
411
381
339
341
342
343
347
352
363
379
394
405
408
389
346
315
305
308
308
311
309
312
314
315
317
317
317
319
322
325
323
327
326
281
415
373
348
329
328
330
333
340
350
363
377
395
402
401
369
332
313
310
310
314
317
319
322
324
325
329
332
332
335
338
339
280
408
383
337
340
342
343
348
354
366
379
396
410
412
390
343
318
313
311
313
315
317
319
319
321
325
325
325
329
327
329
328
332
276
429
396
345
332
332
333
335
344
349
363
381
394
405
397
362
321
305
304
307
307
310
309
312
314
318
318
320
321
323
330
327
324
329
308
341
380
359
330
331
332
337
343
350
357
374
390
399
402
375
332
313
310
312
316
313
317
320
323
323
325
325
327
325
327
330
334
332
336
334
288
406
403
352
331
334
337
340
344
351
361
375
389
399
398
367
326
305
303
301
302
306
309
310
314
315
316
318
318
318
324
324
327
329
328
269
391
374
333
335
336
342
343
353
364
378
391
403
411
397
357
325
314
313
313
316
319
322
326
326
329
330
332
338
339
339
343
329
333
393
376
343
342
342
346
350
358
367
385
401
411
412
384
341
320
313
311
313
314
316
318
318
323
324
325
323
324
330
331
329
332
333
272
435
403
342
330
330
332
335
343
351
364
380
393
399
398
362
324
306
305
304
307
310
312
313
317
319
320
321
324
322
325
332
330
332
334
332
277
401
378
330
333
334
335
340
348
356
374
388
401
403
390
343
317
310
309
310
313
314
318
321
324
325
320
327
332
332
330
334
307
363
370
362
334
333
335
339
343
351
364
376
391
399
400
371
330
311
305
304
307
309
315
315
316
317
318
319
321
324
325
331
262
410
379
331
331
331
335
341
349
359
373
393
404
413
396
351
319
311
310
310
315
319
322
322
324
327
333
333
333
337
311
346
395
362
332
333
336
341
345
351
362
379
394
403
402
369
325
311
308
306
310
311
312
320
317
322
327
330
329
327
328
284
410
380
346
327
328
332
333
339
347
360
374
384
391
385
353
315
300
293
288
293
288
295
298
291
293
292
298
294
294
296
278
300
309
315
287
287
291
295
297
304
319
330
342
350
355
327
291
269
268
265
269
274
276
289
295
294
293
299
307
252
437
372
325
318
324
327
334
338
352
369
387
404
413
399
354
322
316
316
317
319
322
333
331
334
331
335
340
277
459
413
349
344
346
349
354
360
371
385
403
417
424
406
357
329
322
322
321
321
321
326
331
332
333
332
334
337
263
440
398
340
340
341
344
347
352
365
379
394
405
407
384
341
314
309
309
310
309
313
315
315
318
317
319
322
320
321
320
312
282
379
359
319
319
321
323
325
330
342
356
368
378
382
351
310
289
286
282
281
282
286
289
291
290
293
288
293
295
294
295
298
295
255
327
336
296
300
299
303
305
316
328
342
354
365
371
354
311
285
279
280
283
288
291
295
298
304
308
309
312
316
321
246
421
383
326
326
330
332
336
346
355
370
385
396
400
386
341
318
309
310
311
315
319
327
327
333
327
333
341
340
340
343
343
282
420
396
346
349
352
355
359
363
374
389
406
417
423
398
350
325
320
316
316
320
322
328
328
331
332
335
335
337
342
337
288
385
384
339
340
341
344
350
356
367
382
396
407
410
381
342
311
309
312
310
313
313
321
326
326
319
320
319
324
323
323
325
298
348
389
354
322
323
326
330
335
341
354
366
379
384
386
346
297
276
273
275
277
281
287
293
297
304
307
311
313
320
322
331
331
334
338
278
419
421
351
340
340
343
344
352
356
367
384
398
407
403
368
325
310
305
306
306
307
311
316
318
322
320
319
321
326
328
330
331
333
279
441
388
355
337
338
342
342
350
361
373
387
401
409
407
373
332
314
310
312
313
317
320
322
326
326
328
327
325
328
332
335
332
335
335
260
424
386
333
331
333
336
340
343
353
368
381
391
397
379
335
303
296
294
295
298
300
300
302
306
308
310
311
307
307
309
317
316
318
320
310
294
370
362
318
323
327
326
334
338
351
365
380
391
396
376
336
306
298
299
301
306
309
313
316
317
317
322
324
321
331
331
333
333
320
319
389
371
332
332
335
337
344
350
361
376
392
404
407
380
332
309
306
306
308
313
316
319
322
326
326
328
330
332
334
336
338
337
338
339
342
342
345
346
347
267
470
414
345
342
343
346
346
353
360
375
388
398
407
404
372
327
310
307
309
310
310
312
314
317
318
322
320
320
320
320
330
335
337
333
335
336
270
453
408
342
341
339
343
350
350
358
368
384
399
405
401
365
321
307
307
304
305
310
311
316
320
320
320
322
327
327
328
327
332
333
255
458
400
336
333
334
335
337
342
354
364
381
393
406
396
354
312
301
300
300
303
307
310
312
314
319
320
323
324
330
329
328
332
335
338
337
338
340
255
458
393
336
337
337
338
343
347
356
365
383
390
397
397
362
320
309
307
308
317
316
321
329
328
333
330
336
337
340
341
338
343
340
341
342
338
299
363
379
338
340
340
342
344
352
356
368
379
391
398
391
349
315
305
307
310
313
314
316
319
321
320
321
326
324
328
326
328
331
333
333
246
453
384
331
332
334
335
339
346
352
364
377
390
394
388
347
310
301
300
300
304
306
310
313
311
311
316
314
320
324
323
324
322
315
277
412
361
324
327
331
334
338
346
357
371
386
396
402
385
342
313
310
310
311
311
313
314
317
321
319
324
325
327
329
331
328
272
379
379
331
331
334
338
343
351
359
372
384
395
401
382
338
310
306
307
312
315
320
322
322
323
326
326
329
329
331
334
267
429
396
342
337
338
339
339
347
357
366
380
391
397
392
356
322
308
305
305
308
311
312
313
319
316
327
319
322
325
298
390
338
354
322
325
328
334
341
353
364
380
392
401
403
375
329
308
308
308
311
315
319
319
326
330
328
328
327
332
272
426
415
346
333
332
335
340
347
354
368
384
399
407
402
363
321
308
308
307
309
313
316
319
322
328
328
328
328
329
267
389
377
333
333
335
336
341
346
358
375
391
397
400
377
331
308
303
305
309
310
312
315
320
320
325
323
328
329
294
378
373
352
328
330
333
333
340
348
359
373
385
390
387
351
311
294
292
294
295
297
297
305
307
306
308
311
313
253
417
370
327
323
326
329
333
342
353
363
377
390
397
382
339
311
306
306
308
311
313
315
318
320
320
325
328
326
323
326
329
266
405
370
328
329
333
332
335
341
349
361
371
384
390
382
340
312
305
303
308
303
314
315
319
315
318
319
323
324
325
326
328
316
330
327
360
327
331
330
337
339
345
353
364
377
383
386
363
327
305
300
302
301
303
308
313
311
318
322
323
324
324
327
270
432
374
342
336
338
343
346
352
363
374
385
399
408
398
361
327
317
316
317
322
324
326
332
334
333
334
334
334
324
325
357
370
333
339
336
342
346
351
357
366
379
389
385
364
327
300
299
297
298
301
303
306
307
317
315
316
320
322
322
272
383
367
332
332
337
337
344
351
364
377
390
401
408
392
350
324
320
316
317
319
324
326
332
333
334
335
337
339
276
443
393
343
339
340
345
349
354
364
373
391
400
408
393
351
319
310
309
307
307
311
310
314
318
318
321
325
327
328
330
331
272
426
389
339
331
332
334
335
340
349
361
378
388
396
392
354
317
306
305
304
309
310
312
315
317
316
317
318
321
324
325
327
327
267
393
370
327
326
330
334
335
340
352
363
377
384
392
377
341
310
304
302
307
308
312
315
320
323
323
325
333
332
334
335
337
279
399
381
339
339
340
344
348
353
364
377
390
398
402
385
343
316
308
311
310
312
315
317
319
320
325
326
321
324
331
330
328
333
326
301
381
366
329
330
333
336
340
347
359
374
385
394
398
378
336
310
306
304
306
308
313
313
318
316
320
320
319
322
325
327
325
325
330
268
432
382
336
325
328
329
334
337
348
357
373
384
392
390
358
322
307
303
304
307
312
316
316
315
319
318
323
326
329
326
331
334
274
445
392
351
336
340
343
345
353
360
374
388
403
411
407
369
331
318
313
313
318
315
318
322
323
325
324
326
327
329
325
323
325
331
330
324
329
312
333
352
355
325
327
327
329
335
336
351
364
379
384
388
369
341
318
305
303
306
304
311
307
311
309
310
308
310
322
321
320
325
302
365
366
349
334
332
343
346
342
355
358
372
394
406
404
380
337
320
317
316
325
324
321
321
321
328
322
312
314
312
312
265
444
351
326
329
331
333
338
344
354
371
388
405
415
398
351
322
314
313
314
315
320
322
324
327
331
331
333
334
335
315
350
421
360
335
336
337
340
345
353
364
377
395
406
405
369
324
309
305
305
307
306
308
309
313
315
315
316
313
315
316
315
313
314
314
314
315
313
316
317
318
321
320
299
322
391
339
314
316
319
319
326
329
339
350
365
372
380
371
338
306
296
292
294
296
298
303
305
307
311
311
311
314
319
320
322
326
327
266
400
375
332
333
338
338
340
350
357
370
383
396
404
390
350
318
313
313
312
315
316
318
321
327
327
328
330
329
331
332
330
331
332
336
341
341
340
344
322
352
395
365
338
340
341
344
349
354
365
378
392
399
399
387
347
318
310
310
315
315
317
321
323
324
324
324
326
327
329
329
327
330
332
331
331
333
332
281
393
374
332
331
333
337
338
344
353
365
378
388
394
390
353
320
308
307
306
308
311
316
316
318
321
321
322
323
324
325
327
325
328
332
332
333
332
334
270
439
390
337
333
336
336
340
346
354
364
376
387
395
396
371
331
311
306
309
312
310
316
319
319
320
321
320
321
322
323
325
326
326
325
331
334
332
333
336
279
431
393
343
332
333
336
339
344
350
361
374
387
395
395
373
335
310
304
302
306
308
312
315
318
320
320
320
322
322
323
322
324
325
326
332
333
334
333
333
328
298
383
375
337
338
337
338
342
346
355
366
383
396
399
391
358
321
312
307
306
309
308
309
310
317
316
315
314
313
312
314
312
317
321
320
321
323
322
290
354
365
323
328
329
335
340
346
353
363
376
389
395
391
356
317
305
301
304
303
308
309
312
315
315
316
313
317
321
317
319
322
322
273
388
363
328
329
325
317
327
336
335
352
366
376
385
375
336
306
295
296
299
301
306
308
312
316
318
323
323
327
329
331
334
261
436
388
336
336
337
340
344
351
360
373
388
404
412
405
363
324
316
311
313
314
317
321
321
323
325
326
328
328
328
329
331
333
334
334
335
259
457
405
334
324
325
324
328
332
341
352
366
381
389
392
363
316
293
291
292
292
294
294
296
297
298
301
302
302
302
302
303
307
312
313
314
318
256
408
401
329
317
316
316
322
326
335
351
366
381
394
398
376
330
303
299
300
298
303
309
313
318
321
321
324
326
331
331
334
338
263
446
400
339
336
338
340
345
349
357
371
385
396
408
404
364
327
312
313
312
315
317
316
319
320
324
326
326
332
334
334
338
337
272
414
385
338
337
340
343
344
350
361
373
386
399
402
397
359
324
312
312
312
315
316
319
322
324
325
326
325
328
324
332
332
332
334
330
281
390
375
336
337
338
341
345
350
358
369
384
392
397
391
355
320
307
304
307
311
314
314
319
321
319
320
321
320
321
323
328
327
329
333
327
293
378
368
326
331
332
334
336
340
351
363
378
387
391
383
347
316
299
301
302
304
307
309
313
313
315
317
318
321
319
322
323
331
330
328
333
321
321
384
365
332
336
335
340
342
348
358
370
382
391
398
385
349
317
308
305
306
310
312
315
317
318
319
320
322
320
319
319
326
325
327
328
329
267
433
389
335
329
326
329
334
339
344
357
368
381
390
395
373
332
311
304
304
306
309
313
314
318
321
324
324
321
322
327
326
328
329
332
265
432
392
337
330
330
331
332
337
345
354
368
380
388
390
363
321
300
294
296
299
303
305
306
308
312
313
315
316
315
316
324
325
324
329
326
290
380
372
328
331
333
336
340
346
357
368
382
393
400
392
356
322
309
306
309
310
314
318
317
318
322
320
322
324
325
326
330
334
334
336
336
280
427
397
346
335
335
337
341
346
352
365
377
387
396
401
381
342
316
311
311
316
316
321
322
324
327
327
328
329
327
329
339
336
338
341
342
272
428
392
342
342
344
347
349
350
360
371
384
396
403
400
372
332
316
311
309
313
312
316
318
321
324
324
325
324
320
329
326
327
333
332
276
395
380
331
335
335
339
343
346
357
368
382
391
399
394
359
321
305
302
302
302
303
302
304
306
309
306
307
308
312
308
313
316
302
317
330
349
318
320
321
327
333
338
349
365
381
388
397
388
347
315
307
310
315
314
321
323
324
328
328
327
332
335
340
336
337
340
261
467
423
339
336
337
337
341
347
351
364
378
392
402
405
376
326
307
304
301
301
299
302
306
305
305
305
316
310
309
312
299
264
364
352
301
300
303
304
311
316
328
339
352
362
373
362
314
283
272
271
273
278
283
285
284
286
289
297
296
300
305
264
375
361
338
311
313
320
327
334
344
358
373
385
401
405
380
337
313
310
312
316
318
321
326
328
328
326
337
339
339
343
342
270
428
401
344
342
343
345
348
355
364
379
388
401
408
400
359
320
308
307
307
308
311
311
313
317
318
322
323
323
326
293
376
363
358
323
325
330
333
338
349
360
374
390
398
407
383
338
314
306
309
312
316
322
326
327
330
334
337
340
340
342
269
449
425
351
340
344
340
344
349
357
367
383
393
403
400
363
322
305
303
303
305
304
307
311
309
308
315
316
319
321
323
248
401
378
324
326
327
329
332
337
346
361
378
388
394
381
340
308
300
298
300
305
306
309
312
313
315
320
321
323
324
328
256
424
394
333
330
331
334
341
345
349
363
378
387
395
395
358
316
300
298
300
302
305
310
314
315
317
323
327
325
330
330
260
437
403
343
334
336
338
342
347
356
371
386
400
406
405
373
332
311
310
311
314
318
325
326
321
322
320
331
329
332
334
334
262
407
385
328
329
332
335
339
347
356
369
384
397
401
390
348
314
306
306
308
311
315
315
318
314
320
324
325
327
327
331
268
425
404
341
329
331
332
333
341
349
359
372
387
392
393
361
322
305
300
297
299
300
304
303
309
307
314
313
316
321
315
286
346
364
326
326
331
337
342
348
361
377
388
400
405
389
344
316
309
309
313
317
319
324
322
325
321
329
329
332
331
333
253
435
397
334
334
335
338
343
346
356
370
384
393
403
393
353
319
309
307
307
309
312
316
319
319
319
319
324
327
327
331
312
318
388
360
326
329
333
333
338
344
358
371
388
397
398
375
331
303
295
299
298
302
307
306
309
306
308
316
316
317
316
316
254
419
391
332
316
320
324
329
338
344
355
373
386
393
396
363
322
304
303
304
305
312
316
315
319
318
320
324
331
329
332
336
302
365
409
363
336
335
338
339
343
351
365
380
395
403
407
382
337
314
308
311
311
312
316
320
321
321
321
323
320
328
330
330
333
330
270
391
380
330
333
333
334
340
344
355
369
382
392
398
391
348
313
301
300
304
304
308
312
317
318
317
319
324
327
329
331
334
260
443
410
343
339
342
342
344
352
359
371
383
395
403
401
366
324
308
306
308
311
313
317
318
319
322
321
320
319
324
326
325
326
327
257
427
409
333
322
320
323
325
329
338
349
363
377
384
384
356
312
293
289
287
289
295
297
298
299
302
300
307
306
304
311
315
316
318
320
250
426
397
330
325
323
326
329
335
346
357
374
387
392
395
368
325
305
300
301
304
306
306
310
311
314
314
318
321
324
327
329
332
260
439
400
339
333
336
339
345
349
358
370
384
396
402
403
370
329
309
307
308
309
313
315
319
322
323
324
323
323
326
332
331
333
333
282
403
416
347
332
335
335
338
341
350
359
374
388
398
398
373
328
306
304
304
304
311
312
315
317
319
320
318
318
325
329
327
327
332
259
437
402
334
329
331
334
336
343
352
360
376
386
396
395
364
323
304
300
300
298
304
308
310
313
313
315
319
323
324
324
325
276
417
374
348
328
330
337
341
346
354
367
383
398
405
411
385
340
318
315
315
318
320
322
326
325
326
327
327
335
334
338
340
328
297
400
374
333
334
334
336
341
348
358
372
384
396
401
386
341
310
305
306
306
306
310
311
315
316
315
317
321
325
324
327
328
287
380
401
348
327
329
332
334
338
344
359
376
388
396
398
372
330
307
304
302
303
303
308
310
312
313
312
314
319
320
321
323
326
254
425
389
332
325
326
327
332
341
348
359
373
384
390
392
359
318
300
296
297
299
302
308
308
309
313
314
318
320
323
329
313
328
365
371
335
337
341
345
350
357
367
382
396
405
412
392
345
317
311
313
314
318
320
323
326
325
326
327
333
332
334
336
319
314
397
368
331
331
334
336
339
346
356
372
389
396
399
382
336
310
303
303
305
307
310
315
313
316
320
322
323
323
325
297
351
355
352
322
321
327
