341
341
352
371
388
409
411
371
322
308
303
307
306
308
308
315
313
330
327
338
331
340
300
358
379
374
333
341
335
344
350
364
378
397
412
413
377
331
309
316
308
307
310
317
315
325
326
332
335
335
339
248
439
437
345
340
340
340
347
354
362
383
397
412
404
361
319
311
312
308
311
307
313
312
313
317
323
329
331
334
328
248
391
401
337
333
338
343
351
347
362
391
403
406
396
342
311
307
305
304
305
308
311
312
321
324
332
333
332
338
287
394
414
364
338
339
342
345
356
358
369
395
405
409
371
326
317
302
308
313
315
309
314
319
317
319
332
336
330
336
235
427
422
334
336
332
340
346
346
367
377
404
409
406
350
316
300
307
301
312
310
312
310
323
327
328
327
340
334
246
431
418
340
345
337
350
350
358
370
385
401
421
406
352
313
307
309
315
309
315
318
321
317
321
323
326
333
330
339
251
439
426
339
329
334
336
338
345
358
377
395
408
405
364
320
305
307
300
308
303
313
311
311
322
322
328
326
329
328
239
431
412
336
338
338
348
346
358
365
382
403
410
408
358
327
312
307
311
315
310
318
317
320
323
316
327
332
331
299
335
423
364
333
331
335
334
340
351
371
386
411
411
376
326
306
305
315
304
314
307
316
311
316
329
324
327
333
339
242
403
408
332
333
338
338
341
352
372
384
395
412
399
344
307
298
299
297
305
312
307
310
312
326
321
325
329
327
246
393
398
337
339
342
349
358
361
371
390
406
414
399
352
308
303
307
304
311
314
321
322
325
328
324
327
319
286
385
375
331
325
333
338
338
349
362
392
401
407
374
327
303
300
302
304
305
307
302
310
315
320
322
323
332
316
277
396
367
323
328
333
329
336
341
356
380
395
398
369
320
297
296
302
298
300
306
310
308
320
314
323
326
329
318
270
357
386
326
333
337
340
347
350
367
384
406
408
394
337
316
310
307
314
316
318
320
323
323
326
329
336
332
334
246
441
436
337
343
339
345
351
350
361
381
397
412
404
354
317
308
304
302
309
307
319
309
317
325
328
328
330
336
323
285
360
382
332
335
333
335
353
352
364
392
399
410
380
329
308
301
308
311
308
322
315
323
320
327
327
336
336
334
249
444
430
334
328
335
337
341
345
350
375
394
407
406
350
309
300
298
308
307
312
316
317
315
324
322
335
327
336
280
378
429
358
335
335
339
336
346
351
370
389
409
402
365
323
295
299
304
304
305
311
309
326
322
320
324
325
327
248
374
398
323
336
336
342
341
356
367
387
406
417
397
344
309
305
304
311
314
319
315
317
328
333
330
336
335
308
333
410
373
336
337
346
344
351
359
380
387
403
413
371
321
313
313
305
309
311
318
319
319
317
331
325
332
333
343
238
417
409
329
335
336
336
342
348
361
385
393
407
392
342
306
305
295
305
302
313
312
314
316
321
319
321
333
323
266
361
389
327
334
337
337
345
357
364
382
398
409
390
331
306
303
301
304
308
312
315
320
319
331
328
334
329
256
416
442
342
337
334
339
340
353
360
374
393
411
408
358
319
303
299
300
302
301
312
313
320
324
326
333
332
301
342
359
370
332
336
336
341
346
357
374
391
399
398
371
329
308
300
302
310
314
311
315
316
330
323
322
327
330
261
361
396
335
337
335
344
351
359
373
390
410
414
393
339
307
305
305
304
311
315
324
328
322
323
327
331
239
427
406
333
334
335
335
344
350
359
377
399
407
386
330
307
306
308
302
306
310
310
315
324
321
322
330
331
234
437
435
330
337
333
340
343
344
362
378
390
411
398
343
313
306
303
308
310
311
315
314
323
318
326
332
333
333
303
361
390
365
339
343
344
339
346
362
376
398
405
415
379
332
311
309
309
308
310
318
318
320
325
331
327
330
340
282
388
422
361
339
336
336
343
347
358
368
396
405
412
371
325
307
304
304
307
301
306
311
323
328
327
331
328
292
365
385
360
332
337
336
340
346
357
367
393
404
403
372
322
309
305
301
304
304
311
316
324
321
325
330
335
255
436
413
349
333
347
347
354
359
368
384
410
407
407
351
313
312
308
313
314
312
322
320
323
320
320
331
323
254
404
387
331
336
332
338
339
346
357
381
397
404
374
327
301
302
295
300
307
300
303
317
317
319
319
322
243
382
397
331
333
334
348
342
351
362
377
395
409
388
336
317
308
304
306
306
313
311
314
324
320
320
324
328
235
414
409
335
341
335
338
345
351
367
379
398
408
391
337
315
303
300
307
306
308
306
311
318
326
326
333
332
325
273
364
383
328
335
341
344
352
355
373
388
406
410
375
338
315
310
304
308
302
307
315
313
323
325
330
331
275
409
403
355
330
332
338
340
347
357
375
395
398
395
350
311
298
306
306
307
312
315
308
316
321
323
327
327
327
242
429
423
324
328
332
336
338
350
355
371
391
400
396
350
311
311
304
298
302
306
306
311
311
321
323
327
326
328
255
375
403
338
336
343
344
355
354
375
384
403
412
390
331
308
307
308
308
310
318
314
317
322
332
330
332
335
332
251
411
399
335
337
340
343
345
355
367
386
399
408
383
333
309
303
303
303
307
309
310
313
320
324
326
330
331
309
329
359
375
332
333
339
340
349
358
372
386
400
403
373
328
310
305
305
309
313
316
320
326
328
331
333
334
336
253
446
424
347
338
339
342
343
352
363
380
399
412
402
353
310
304
301
301
304
306
312
314
316
323
323
321
325
323
232
422
399
327
330
332
337
339
347
362
380
400
413
389
336
307
308
305
307
307
310
311
316
317
324
327
329
332
316
301
367
372
330
333
337
342
348
357
370
389
404
410
374
327
307
304
300
305
310
310
314
311
317
321
327
325
330
333
248
443
420
342
335
335
337
344
350
363
380
394
407
402
357
313
304
304
304
307
308
313
312
313
320
322
326
325
330
244
435
431
337
335
336
337
340
346
359
373
391
407
400
350
313
304
305
306
307
310
315
316
316
320
330
325
329
332
315
311
355
377
333
335
334
342
350
358
374
390
408
411
382
334
312
310
310
316
318
322
323
323
324
334
332
333
335
335
247
418
413
340
340
343
347
345
353
364
379
386
405
386
331
311
292
295
289
296
294
297
301
304
307
302
305
317
296
341
336
364
326
335
341
342
349
360
374
392
400
409
378
332
318
313
317
319
321
325
333
330
332
333
335
341
271
448
442
356
338
339
342
346
351
362
380
396
410
404
355
317
307
305
303
310
308
310
320
324
322
322
327
327
235
442
431
330
326
327
330
332
341
353
371
388
399
390
339
300
295
295
299
302
304
305
311
311
316
323
328
331
328
324
238
418
398
330
335
332
337
340
347
363
384
395
411
388
337
308
304
303
305
309
309
320
323
321
322
326
336
332
336
338
269
432
424
360
336
338
339
347
349
366
380
396
412
408
374
325
310
306
304
307
310
315
315
317
315
321
325
325
329
334
254
429
435
340
328
330
333
337
344
353
369
389
403
402
357
313
299
297
300
304
302
310
314
315
317
317
320
327
330
330
333
309
314
416
370
331
330
332
339
339
352
365
381
396
404
377
323
299
295
299
296
300
303
309
312
311
315
319
323
324
324
329
273
400
399
356
327
334
336
346
349
364
375
393
408
411
379
327
311
308
303
307
309
316
317
321
322
327
331
335
334
334
261
405
394
336
338
339
344
351
358
369
392
405
417
390
340
310
308
305
305
306
309
312
319
325
318
319
328
333
329
331
333
238
451
437
340
338
340
342
346
351
358
380
398
408
408
360
322
308
307
304
310
309
312
317
317
316
316
324
330
334
331
334
282
392
405
361
333
335
336
340
346
359
374
390
404
407
377
327
306
302
300
303
306
310
313
318
314
319
322
330
331
330
334
279
394
417
361
335
337
339
341
350
359
372
388
404
404
370
320
306
304
302
303
302
307
314
312
318
316
316
320
328
330
333
334
288
363
429
358
332
336
336
339
345
350
368
383
399
406
375
330
307
305
303
305
308
305
311
313
316
316
313
318
324
330
329
329
334
264
417
424
350
330
335
335
340
347
354
371
389
399
407
374
325
307
304
300
305
309
309
315
314
315
316
316
327
330
330
334
333
237
418
411
331
335
339
343
347
353
366
375
396
407
396
349
311
302
305
306
307
314
316
317
317
322
318
319
325
329
328
326
332
276
380
419
354
330
332
336
342
346
351
368
387
400
411
383
335
312
309
306
307
308
314
317
319
322
328
331
334
332
336
287
397
407
366
338
344
345
345
353
363
377
400
412
417
381
331
311
312
310
313
313
317
318
322
324
328
326
337
336
335
340
325
284
408
386
334
338
340
345
346
353
366
385
400
410
387
337
312
313
306
306
308
308
311
316
314
315
317
313
329
327
330
332
333
238
409
409
334
334
340
343
348
356
363
378
395
404
399
358
318
309
308
303
305
308
311
315
320
315
323
325
326
331
331
231
430
415
335
332
338
343
346
355
364
381
399
406
397
348
304
297
298
303
307
311
316
319
319
321
326
332
330
332
337
251
431
452
339
331
328
332
342
347
359
377
394
409
410
370
318
301
298
301
301
303
306
310
313
313
324
323
328
329
331
236
408
405
329
330
334
333
341
347
361
377
393
405
391
344
307
299
299
303
306
308
312
317
310
311
317
322
322
323
327
301
330
363
371
329
336
337
339
344
355
366
387
396
406
384
336
309
304
304
308
313
313
317
321
328
333
332
335
356
277
398
393
359
332
332
335
338
340
353
368
384
397
404
368
318
304
304
308
309
312
314
316
315
321
327
322
320
325
223
427
419
327
326
333
335
340
346
357
374
394
407
401
350
311
304
307
307
311
316
317
314
316
323
322
326
332
335
251
433
419
340
339
339
345
347
354
366
383
399
408
412
369
326
312
311
317
314
317
316
317
319
321
320
323
326
269
417
403
359
336
338
343
349
352
364
376
391
403
402
364
320
298
299
305
307
306
312
311
315
317
323
321
329
325
284
359
413
350
324
331
329
334
342
344
366
383
397
401
366
320
305
304
303
305
311
314
313
316
322
319
329
317
327
276
376
397
354
325
334
333
342
340
345
373
380
394
402
367
316
302
304
307
306
313
309
315
316
314
320
325
325
323
328
248
435
419
340
328
331
335
340
342
352
374
388
401
401
363
312
304
304
307
311
318
318
318
321
326
331
332
335
332
321
290
395
382
334
334
332
336
339
351
363
386
397
406
384
332
307
305
305
308
311
310
315
318
322
325
325
333
330
299
361
368
373
337
332
344
343
351
359
376
389
402
410
374
326
310
302
302
310
311
319
317
319
321
333
328
328
333
325
263
393
391
330
334
335
337
345
349
362
384
402
405
388
338
309
303
303
304
309
309
313
319
328
321
326
328
327
256
367
394
333
336
338
336
345
355
371
390
402
414
394
340
308
300
309
307
308
316
315
312
318
322
326
329
326
302
305
405
360
335
327
336
335
343
353
367
386
399
409
373
321
304
299
299
301
304
304
314
319
323
320
322
324
325
252
365
394
333
333
332
340
344
351
370
383
399
417
395
344
312
307
305
309
315
317
314
315
326
340
329
329
320
323
286
388
378
330
337
353
333
347
362
370
382
408
410
374
328
302
297
316
302
291
301
306
309
344
311
300
315
321
240
430
407
324
320
331
321
332
339
357
375
398
410
397
351
316
304
299
304
303
306
320
325
327
329
338
334
252
421
419
339
334
341
340
352
353
371
388
411
415
398
346
314
308
306
304
308
314
309
315
322
319
324
324
328
258
404
431
346
327
330
332
329
340
353
368
387
404
401
354
314
297
302
297
301
299
301
303
308
320
323
326
330
330
283
392
390
357
335
331
338
343
351
361
380
397
413
415
373
332
310
308
309
311
314
317
323
323
325
326
332
333
341
334
341
239
439
414
336
337
337
342
346
351
366
384
399
412
396
344
312
307
302
299
303
304
304
313
313
318
323
324
328
325
328
321
252
414
388
327
333
334
338
340
347
359
381
401
408
387
334
311
300
300
302
304
308
303
313
316
312
321
327
329
331
332
285
381
397
359
333
336
340
343
347
357
370
391
408
408
374
329
305
300
302
308
309
310
313
315
312
324
328
332
332
337
246
449
428
346
339
337
339
345
353
364
383
400
413
412
356
317
308
305
304
308
312
314
319
320
318
314
326
326
338
330
335
252
422
446
337
332
333
340
336
347
356
372
389
409
411
377
318
307
304
299
306
305
307
311
312
317
317
329
323
326
337
324
265
418
422
349
335
335
338
339
343
353
375
388
409
407
378
322
305
302
299
307
309
315
316
318
318
326
328
331
337
336
287
393
413
363
329
334
339
336
347
352
370
385
404
412
373
319
303
298
301
303
299
308
310
313
309
321
320
327
324
332
232
439
419
330
331
332
331
340
345
356
369
394
409
401
352
311
304
298
302
301
304
311
310
310
317
320
321
327
327
325
263
367
385
328
328
328
335
343
348
367
385
404
414
393
342
314
310
308
312
315
322
322
321
320
333
331
335
333
336
270
426
414
359
339
337
341
349
349
358
378
393
411
403
362
312
304
294
299
300
306
312
308
320
319
314
333
329
327
330
336
246
432
440
338
335
333
334
342
347
356
375
391
404
403
363
319
301
299
304
302
307
311
307
312
305
321
319
326
325
331
292
365
387
363
328
331
335
335
348
359
373
394
408
417
380
337
310
308
308
311
309
313
314
320
319
327
332
333
335
339
274
427
425
365
340
340
347
354
351
362
379
390
409
410
375
322
307
309
306
304
305
310
318
320
320
319
320
323
327
317
334
327
222
429
408
324
329
331
331
344
352
367
388
402
418
403
358
323
319
307
309
303
309
311
316
308
319
329
329
325
336
296
340
377
369
336
334
333
342
346
360
371
391
405
426
375
324
301
302
293
306
296
299
308
310
307
326
322
322
320
323
243
387
392
333
334
330
335
337
347
366
380
397
408
382
331
302
296
295
296
296
305
306
313
315
318
322
323
323
328
314
280
356
388
327
330
337
344
349
360
370
389
405
414
388
336
305
305
302
304
306
314
312
316
310
318
334
331
353
333
282
292
395
377
328
342
343
351
347
343
361
373
390
388
357
307
286
281
280
281
289
286
294
304
305
306
313
302
315
320
242
417
405
345
323
329
326
332
343
351
371
391
408
410
381
329
307
304
306
311
311
317
322
328
332
333
337
332
345
270
438
429
360
337
344
344
350
357
363
384
399
413
416
370
319
306
309
308
306
310
318
323
318
326
326
332
331
333
335
290
358
441
358
332
333
333
339
344
355
367
393
411
411
381
326
301
301
296
299
306
307
304
313
308
313
324
322
333
328
327
235
414
403
327
329
333
338
340
348
357
379
397
407
398
354
314
305
300
301
305
309
312
314
318
329
318
329
325
334
238
454
431
341
340
337
343
344
349
365
379
393
414
397
354
311
300
297
300
305
299
313
309
308
317
326
326
320
332
326
225
421
402
328
331
330
332
333
346
360
377
393
410
391
343
308
300
299
292
301
303
312
311
322
322
329
323
325
330
324
269
362
392
328
336
338
343
341
360
368
392
405
417
397
345
313
312
304
307
310
315
316
315
318
326
328
330
323
333
305
300
405
372
329
319
331
336
341
340
365
376
390
406
377
327
298
300
295
295
302
305
305
305
310
310
320
325
327
327
326
240
427
416
335
324
327
337
328
343
356
367
389
404
404
367
327
303
304
298
300
303
309
315
314
316
325
327
334
329
333
248
447
432
342
332
335
345
347
353
365
384
398
409
412
364
324
308
310
304
309
312
314
317
320
320
323
327
332
334
334
308
337
411
361
332
334
339
341
343
352
366
386
403
408
388
335
309
307
308
305
310
311
322
320
313
329
321
330
335
333
341
303
370
380
378
346
339
346
348
348
358
376
393
405
419
386
339
321
304
303
310
299
310
318
311
314
319
317
324
327
329
324
304
316
403
364
346
328
331
335
345
358
356
380
396
396
381
327
301
293
304
303
301
309
304
316
312
318
319
325
328
333
328
236
424
415
340
337
337
335
345
354
366
378
393
409
401
355
317
304
304
299
306
299
311
308
314
312
323
328
327
329
329
241
398
405
325
326
336
332
345
345
363
377
394
401
394
344
309
301
305
299
304
307
307
311
309
304
314
324
326
326
327
298
323
424
364
331
330
335
335
331
346
359
378
391
400
376
331
304
300
300
298
301
310
304
306
307
316
326
320
322
326
320
278
357
389
335
338
334
339
346
353
367
388
404
412
394
343
309
307
305
312
312
316
321
321
319
322
321
330
331
332
339
326
271
396
390
328
338
336
343
347
355
367
387
405
413
391
340
313
303
305
306
310
306
317
316
315
313
322
324
324
331
332
272
397
433
351
330
337
343
338
345
360
372
390
409
411
376
329
307
309
303
308
308
311
316
317
325
317
323
331
331
335
344
322
307
381
385
338
337
341
335
343
356
369
381
405
416
392
346
321
308
309
308
316
318
321
326
327
326
339
335
331
350
319
337
397
388
337
340
348
347
355
361
377
393
410
418
390
334
307
301
305
303
312
306
305
312
308
320
318
323
321
308
269
407
368
323
324
322
332
335
341
357
364
407
401
375
337
309
310
311
302
309
307
312
315
319
321
322
323
331
325
325
318
268
391
365
316
321
321
320
327
336
352
375
395
408
395
351
313
305
307
306
309
313
313
317
312
312
325
327
327
331
328
226
420
411
327
329
332
332
349
343
359
378
396
411
395
353
311
288
297
292
299
296
308
303
312
308
315
329
326
326
328
317
280
364
388
329
336
341
339
348
353
367
386
408
409
388
341
307
300
303
303
302
314
310
312
311
322
329
327
325
332
259
395
447
339
333
328
336
328
341
349
365
390
401
403
373
323
299
305
311
307
312
317
317
325
320
318
325
328
332
332
331
280
383
411
357
330
338
337
340
343
361
373
386
402
408
379
331
308
314
298
308
311
313
319
319
319
318
330
327
334
339
340
240
418
413
338
334
336
343
345
354
362
381
400
407
402
356
312
301
308
305
310
312
318
318
326
324
320
325
326
339
338
339
337
310
318
426
372
335
336
327
337
334
349
365
382
398
406
394
325
308
299
295
301
301
306
308
301
315
300
315
326
314
321
329
326
280
363
386
328
335
340
339
343
366
377
381
397
411
399
346
311
306
305
303
297
309
315
323
326
323
330
331
337
333
336
246
417
402
333
343
341
340
345
349
358
382
401
418
394
339
304
303
298
300
297
301
303
300
308
317
318
317
321
326
229
373
389
323
326
322
330
327
341
354
371
385
396
384
335
306
295
291
297
305
308
316
320
324
336
334
344
336
349
232
427
404
328
334
339
340
348
346
368
381
401
412
397
337
306
299
302
303
310
309
313
311
313
323
325
330
326
330
221
459
439
334
334
332
332
333
339
353
376
392
412
400
355
308
296
297
292
293
294
300
306
304
306
317
324
324
323
327
310
271
389
379
329
331
337
333
339
345
357
380
396
408
387
333
303
298
300
299
300
304
308
308
311
318
322
324
327
331
316
293
360
382
325
335
336
338
344
356
371
386
404
413
394
345
313
308
309
314
318
320
320
322
323
333
333
336
339
341
246
455
436
346
340
342
344
347
357
366
383
404
417
409
363
322
310
307
309
308
310
312
314
316
315
323
330
335
332
332
323
261
411
385
329
329
331
339
338
348
360
379
398
406
387
336
306
296
294
295
290
299
304
308
304
314
319
322
324
327
323
259
363
386
326
332
330
334
341
348
359
380
394
406
393
341
311
299
300
299
307
306
310
311
311
313
326
327
328
334
313
296
394
375
328
334
326
333
341
348
364
382
399
412
380
328
304
301
301
303
301
307
307
314
315
312
312
323
330
325
327
332
268
385
440
348
328
334
329
335
339
352
366
380
400
416
376
326
307
305
304
306
304
308
311
310
313
311
321
326
329
333
337
248
437
430
339
336
334
336
340
344
358
378
392
406
406
377
321
303
301
300
303
307
309
317
312
316
319
329
338
330
339
299
364
400
377
335
337
337
345
345
356
369
389
406
410
390
335
312
307
305
307
304
313
318
319
313
315
323
326
330
332
335
245
438
445
335
329
329
334
341
344
357
374
395
405
407
367
318
306
306
303
307
307
306
313
310
314
313
322
323
329
326
332
240
398
403
330
334
336
340
348
353
364
382
401
414
405
354
317
310
307
307
310
315
318
320
322
326
332
333
337
338
305
363
403
379
339
335
340
344
350
358
369
388
403
409
376
332
306
307
304
306
307
310
310
313
311
319
319
331
327
326
328
277
362
429
346
330
325
327
331
341
347
360
380
396
396
375
320
298
294
299
289
296
302
300
305
307
313
320
316
320
325
247
436
410
342
329
332
333
341
345
359
376
396
410
409
368
317
300
304
300
303
303
312
311
311
313
313
324
324
322
330
323
239
419
386
325
326
330
334
339
345
359
376
391
410
388
341
305
302
304
303
307
306
312
317
315
317
318
328
333
327
334
329
234
408
405
333
333
332
337
344
347
361
379
395
403
400
353
311
301
301
300
302
311
313
317
318
315
315
322
331
323
331
336
292
351
410
367
329
331
336
343
338
353
368
384
401
409
380
325
302
298
301
300
308
308
322
312
316
312
311
331
329
330
328
327
227
421
414
328
332
336
340
341
352
362
380
396
409
406
362
316
308
311
307
309
314
318
315
317
322
329
332
336
339
339
260
452
425
358
336
339
343
349
357
366
384
410
416
418
379
331
305
315
313
305
315
320
319
314
316
330
342
331
332
339
332
236
430
411
329
336
334
341
337
351
358
385
397
411
408
364
321
315
312
323
319
330
332
325
325
320
332
323
324
325
320
231
362
384
308
317
321
319
326
333
357
371
393
408
392
340
304
291
292
295
291
302
300
309
305
316
311
321
316
318
228
420
388
325
318
327
323
331
334
356
366
389
402
392
329
303
293
292
296
304
302
310
317
312
318
320
328
321
328
333
249
417
455
336
332
331
331
329
338
349
363
389
396
404
362
307
294
297
280
281
292
296
296
305
298
305
312
315
311
317
323
255
406
393
334
315
316
327
333
331
347
361
384
396
397
369
328
298
303
299
309
306
315
318
321
323
324
325
331
331
320
301
378
385
335
336
337
344
341
359
369
382
400
409
387
332
309
298
292
297
302
307
304
311
317
316
323
322
320
266
391
413
344
320
322
327
328
343
350
370
389
409
404
366
316
300
300
298
299
305
307
304
311
314
318
330
330
328
330
331
240
419
402
334
334
338
341
342
349
368
379
404
412
398
351
310
303
305
299
304
306
312
316
319
323
315
317
323
325
332
337
333
241
450
433
342
336
339
342
347
353
363
380
395
412
412
372
323
302
288
302
301
308
309
309
312
303
314
329
322
326
335
326
226
448
421
334
330
329
337
334
343
358
373
396
411
407
352
312
302
299
302
301
303
302
307
314
316
320
320
321
329
328
241
431
419
332
326
329
336
338
349
358
382
399
404
408
367
320
308
307
308
308
313
316
318
319
316
329
323
328
335
334
239
400
400
331
327
336
335
334
343
356
376
397
405
390
337
297
290
291
287
289
291
301
297
300
303
315
310
316
319
228
429
432
328
314
313
320
322
332
339
360
387
397
400
356
309
289
295
294
298
293
302
303
311
314
315
311
320
314
237
423
374
326
325
324
330
343
344
364
386
404
411
387
331
301
301
301
299
299
304
316
312
312
315
324
327
327
334
335
224
439
436
331
331
333
332
339
343
354
370
394
396
402
355
309
295
299
294
295
297
300
302
304
304
312
315
321
321
328
248
424
412
342
325
333
331
334
351
353
380
395
405
407
370
326
312
304
304
311
307
313
318
314
326
325
325
330
333
236
443
428
332
335
330
333
337
347
357
373
394
404
401
354
310
300
304
299
299
298
305
307
305
314
324
324
323
326
235
434
427
331
331
328
330
333
340
354
376
395
409
396
352
316
303
300
304
309
302
312
302
315
326
333
326
323
332
283
402
406
366
333
333
341
350
359
377
379
405
405
415
382
317
309
315
310
308
318
319
317
323
313
335
316
336
325
336
289
340
404
367
322
325
334
331
333
347
358
372
393
395
370
324
298
297
298
302
298
300
305
304
308
317
318
320
320
221
399
400
322
327
322
327
332
342
360
368
406
403
391
348
312
300
298
301
304
309
309
317
312
320
323
324
326
329
239
439
424
333
341
334
336
339
350
355
373
393
407
402
354
312
298
305
298
301
303
313
309
315
312
320
322
321
327
322
226
420
410
325
329
326
331
336
340
357
375
394
408
397
347
317
299
299
301
294
303
309
304
307
315
314
321
321
325
289
354
383
364
326
325
330
333
338
346
367
383
404
402
365
311
296
293
287
291
300
299
303
306
303
304
312
315
323
316
328
264
383
411
345
322
326
324
330
339
349
362
388
407
403
366
317
303
299
297
299
298
312
311
318
317
327
329
329
335
338
252
414
407
340
344
353
353
362
367
382
404
421
436
422
373
332
322
318
320
320
319
325
327
328
332
332
334
338
336
248
429
406
333
336
337
335
342
346
360
381
400
408
387
323
292
283
283
281
284
285
285
286
287
290
296
296
297
300
301
194
414
384
297
297
303
303
310
318
333
349
372
388
377
316
284
280
279
276
288
283
288
294
305
304
298
304
320
322
322
325
328
229
438
419
332
330
333
338
341
353
371
385
407
416
420
376
323
315
309
306
310
309
318
323
324
327
323
340
337
339
341
345
263
414
415
346
345
354
357
365
369
381
405
420
433
420
364
320
317
311
308
310
319
320
322
324
319
319
330
334
332
340
337
234
453
413
329
332
328
337
332
344
350
374
391
405
394
336
295
294
296
293
296
296
303
302
302
305
309
320
321
318
322
323
240
400
396
327
326
327
335
333
349
358
375
395
411
399
345
306
298
294
297
296
297
304
314
313
317
320
325
325
328
335
277
406
410
357
331
336
336
341
347
357
372
389
413
411
376
322
304
301
298
306
303
306
309
313
316
314
313
324
324
325
324
329
232
436
415
327
329
334
334
340
347
358
375
395
405
406
361
317
301
298
296
305
301
306
315
315
319
325
329
329
341
334
249
444
423
340
337
339
349
350
359
366
384
403
415
415
360
322
304
302
300
304
306
313
313
306
317
317
326
321
324
324
232
444
428
322
318
317
319
321
331
341
355
374
392
394
346
297
285
284
284
280
283
287
291
291
299
308
305
314
319
312
216
398
394
316
321
321
320
325
333
350
371
395
401
401
345
306
298
298
291
293
309
302
314
317
320
329
337
324
324
284
356
393
333
347
345
349
345
361
370
396
407
420
398
343
318
306
313
305
312
312
324
321
324
319
321
316
286
352
376
324
334
333
329
342
350
367
389
405
410
383
327
303
303
300
298
298
304
309
314
316
318
319
327
294
315
359
364
315
324
322
330
330
345
362
390
403
414
375
320
307
302
302
299
295
298
296
305
306
317
317
318
318
332
210
455
411
324
323
317
323
324
333
347
363
390
412
400
345
308
291
295
286
283
280
284
269
285
296
313
308
308
295
304
209
385
367
306
298
303
301
306
320
349
348
354
393
393
360
313
294
290
286
282
285
274
302
278
281
294
304
315
322
336
350
305
365
422
362
354
349
359
353
368
379
383
396
406
391
343
311
314
312
322
319
317
323
324
319
326
329
324
329
330
253
426
410
335
332
342
342
346
351
369
383
417
423
424
371
332
320
314
315
313
305
316
320
312
320
320
305
258
472
355
322
327
324
333
333
350
358
380
401
410
371
324
307
312
307
300
303
318
321
314
326
325
309
247
486
359
329
327
329
334
341
350
365
380
407
410
380
324
304
309
303
306
310
318
322
325
326
331
320
214
459
375
315
317
322
331
327
336
347
359
377
385
368
307
283
280
283
280
288
288
304
309
297
309
312
284
314
414
351
316
314
320
328
336
342
359
374
388
393
371
322
299
297
301
300
304
308
310
315
320
319
326
327
304
323
393
375
334
334
342
342
351
356
372
388
401
410
388
342
313
311
309
311
315
322
319
328
334
335
333
340
250
391
412
342
348
348
358
361
376
380
397
413
425
410
368
336
325
325
329
330
328
335
340
326
338
344
347
349
256
441
428
350
348
351
351
351
361
368
381
387
394
384
336
292
278
273
272
266
274
274
291
286
287
285
292
266
311
308
322
293
292
298
306
320
318
338
349
360
381
342
305
278
273
276
277
288
296
298
299
296
302
307
262
371
393
348
312
324
334
333
339
345
365
391
391
405
371
321
303
313
306
309
312
317
326
325
332
326
330
331
224
465
409
331
335
339
339
343
355
370
383
405
418
404
353
315
311
309
316
312
317
327
328
332
335
333
338
346
274
409
446
361
340
339
343
353
349
364
379
396
411
415
381
319
302
307
295
305
296
300
305
303
305
313
308
317
302
288
290
398
347
307
308
312
311
320
331
337
359
373
383
353
307
281
280
281
276
287
285
295
292
301
299
303
310
311
324
316
243
400
375
322
327
319
328
339
345
362
380
396
408
389
340
309
307
298
304
310
312
312
320
321
330
324
334
337
340
320
324
425
380
341
346
349
347
353
367
375
401
412
420
400
341
314
313
308
314
319
324
327
329
325
325
334
335
337
340
334
253
410
398
333
334
339
338
344
344
357
371
390
401
388
328
300
291
290
291
298
297
304
302
301
302
316
314
314
319
302
293
385
367
318
322
325
328
334
338
358
373
394
398
372
326
304
295
297
300
307
303
307
311
319
318
323
328
331
281
415
390
359
336
341
339
344
354
367
382
404
411
419
383
329
318
299
305
316
314
319
322
322
323
327
327
336
339
342
248
404
396
335
327
339
336
343
359
357
381
400
404
387
337
301
305
298
301
294
303
309
307
317
317
325
324
329
336
263
405
426
348
331
332
335
337
347
356
370
391
408
409
370
325
309
304
301
314
307
312
317
321
327
335
324
336
338
269
431
415
356
341
343
346
350
354
361
380
400
416
407
376
322
315
301
310
305
308
317
324
324
316
328
321
327
330
323
253
409
384
327
330
336
329
339
348
362
384
402
400
387
330
303
290
293
296
301
302
305
314
308
316
320
316
326
336
234
407
392
324
327
328
337
342
353
363
385
399
420
389
339
309
299
303
302
303
303
310
313
317
321
320
323
324
252
423
418
338
321
325
327
334
339
352
375
391
400
402
354
311
301
300
290
300
303
302
309
318
319
321
323
324
294
365
365
365
330
333
337
337
349
359
373
391
406
409
377
332
297
304
303
299
306
308
319
317
317
324
323
323
249
389
388
329
337
334
332
337
345
369
379
398
406
381
323
305
302
304
294
303
300
309
309
317
325
333
327
332
241
441
429
335
331
331
335
343
343
351
379
396
404
402
357
315
305
304
301
305
305
309
313
326
331
328
331
339
275
429
408
356
330
340
336
341
346
361
379
391
409
406
366
321
311
311
304
311
317
319
326
327
324
331
330
266
446
407
348
337
343
341
351
360
376
385
409
416
406
357
320
305
307
304
309
315
319
320
321
319
322
312
273
398
368
327
323
328
329
339
339
362
382
397
401
359
313
299
293
298
296
296
299
310
310
314
320
321
307
276
388
368
321
324
321
336
335
349
361
385
399
401
367
313
298
295
298
296
300
300
297
304
313
314
317
319
326
232
395
404
324
326
331
328
345
347
368
384
404
407
394
343
314
304
306
309
303
310
311
313
328
324
336
334
335
260
380
403
333
334
330
331
340
348
356
378
398
397
380
327
305
304
299
303
304
313
321
317
332
336
329
339
300
387
392
372
337
346
342
348
362
362
385
402
414
413
375
330
307
306
311
310
313
316
314
323
319
324
327
243
430
431
341
320
327
328
334
338
352
378
391
406
397
343
305
300
297
297
300
304
305
302
310
327
318
320
322
319
249
414
367
317
318
319
319
325
336
351
368
389
395
352
310
282
282
280
281
280
283
281
281
291
297
300
297
303
304
205
392
381
306
301
304
307
316
328
336
364
379
399
371
326
292
292
291
291
295
301
303
309
314
321
324
327
331
332
258
395
407
340
340
346
348
348
365
377
391
423
419
395
348
311
311
308
309
316
321
318
322
324
334
333
337
340
345
239
456
436
344
352
349
352
352
361
376
400
413
425
409
354
322
315
316
314
319
312
323
321
323
330
334
335
340
344
292
388
414
366
342
345
344
348
356
367
384
398
406
419
367
324
305
310
305
309
307
309
319
318
319
327
330
330
336
337
229
432
406
329
330
338
338
346
343
360
376
393
400
385
346
306
301
300
302
303
300
311
311
314
315
329
325
325
338
331
265
366
394
330
336
339
348
349
361
373
398
407
418
387
341
308
306
302
303
306
307
306
300
298
305
309
307
301
304
240
361
432
305
294
287
290
295
301
314
329
357
374
381
332
283
279
280
269
278
280
285
285
292
294
293
300
307
307
308
319
307
259
364
369
318
317
320
329
336
349
366
383
401
411
386
338
304
307
306
308
311
314
320
319
318
324
329
334
335
337
341
242
450
432
344
339
337
345
350
354
368
383
409
415
411
356
318
308
306
309
312
313
319
320
324
324
322
335
332
336
338
347
245
460
436
343
342
343
347
345
357
370
386
406
418
407
356
315
311
308
311
311
315
319
323
320
323
319
331
333
331
336
341
258
451
436
347
338
339
342
343
356
359
381
393
404
406
368
328
307
300
302
302
306
314
326
321
317
324
325
329
334
346
340
315
367
372
379
342
352
355
360
367
373
390
408
422
427
401
340
322
313
314
318
318
318
320
325
325
330
325
331
330
275
399
432
348
329
329
327
329
336
349
363
384
402
407
360
303
294
293
292
295
298
299
311
306
310
314
316
322
319
325
334
266
386
439
346
334
324
327
333
340
352
364
388
401
404
367
315
295
300
295
300
298
298
299
303
309
306
304
302
316
316
315
320
318
236
408
381
315
311
320
324
324
330
346
363
388
392
378
324
292
278
285
286
287
292
300
300
306
306
308
311
317
323
325
329
325
265
389
391
328
334
340
343
344
353
369
393
405
421
405
350
310
315
309
311
311
315
322
330
328
334
332
328
345
343
346
343
333
297
425
392
341
345
346
355
357
364
376
398
414
423
399
350
316
314
310
312
311
313
322
325
331
328
323
329
340
330
339
340
343
250
453
434
348
333
344
343
348
354
366
384
398
417
412
366
321
314
304
303
309
308
313
318
324
317
322
319
321
325
321
326
327
266
401
427
343
323
323
324
327
324
340
355
378
385
401
364
304
290
285
284
274
285
290
294
300
296
301
299
308
316
311
320
325
226
413
408
325
322
327
330
336
348
355
374
394
411
394
356
314
298
298
293
299
307
305
305
313
314
318
319
331
324
331
334
322
275
412
383
330
332
340
341
348
350
362
388
404
415
391
342
313
313
315
309
315
312
318
321
324
321
325
334
332
337
336
338
273
417
434
355
328
337
339
339
343
352
369
392
404
406
371
321
303
302
298
296
304
304
309
310
315
313
324
328
332
335
330
247
443
433
343
336
337
344
342
348
370
377
402
414
411
369
327
315
304
306
313
310
317
321
326
330
327
328
329
337
340
341
342
331
283
401
388
338
337
337
345
351
356
365
391
408
415
400
342
317
307
307
307
309
311
311
311
325
318
323
317
326
326
332
329
338
324
283
418
385
336
336
340
341
340
354
367
388
404
419
394
348
312
308
308
311
313
310
316
311
322
318
315
320
330
329
337
343
342
256
395
407
338
337
337
347
348
356
371
382
402
415
405
354
318
311
305
304
309
311
314
314
320
319
317
316
330
330
330
332
330
266
412
439
349
331
329
337
341
343
351
362
390
401
403
373
319
309
302
304
307
310
311
311
315
323
315
314
317
328
326
329
330
328
269
375
388
329
330
342
343
346
359
370
386
404
411
395
349
314
308
296
304
303
305
310
319
315
317
325
331
333
334
335
299
369
405
372
327
333
337
343
341
357
372
390
405
411
380
326
310
304
306
306
309
314
311
315
320
316
315
314
329
329
331
330
327
265
406
384
329
328
326
331
334
346
362
383
400
411
395
348
311
307
310
306
307
310
316
314
318
311
328
330
331
336
332
254
382
402
332
333
337
340
346
349
367
385
408
411
401
353
317
305
300
310
311
311
317
320
314
318
326
328
326
327
331
255
413
397
327
325
327
332
337
347
360
381
397
408
390
338
311
307
309
307
307
312
315
309
324
328
322
325
332
324
258
366
387
330
328
333
330
336
348
363
385
395
403
388
339
305
299
297
298
302
298
308
310
316
315
313
319
317
264
355
379
327
336
336
339
350
362
377
391
407
422
400
345
321
315
317
311
319
317
321
327
327
326
331
334
282
390
422
352
330
330
332
339
342
346
371
389
409
399
358
325
299
295
287
295
296
292
312
314
316
316
329
327
264
453
401
349
331
345
345
345
355
369
388
398
413
411
370
320
315
304
305
311
316
313
316
320
319
320
324
242
452
429
332
322
331
331
333
338
357
378
389
404
401
343
305
299
303
304
298
300
305
310
323
325
323
326
330
226
449
424
328
327
323
327
333
341
347
371
395
402
391
340
302
297
298
300
303
304
306
307
314
316
322
330
327
330
270
398
433
349
328
331
334
339
336
353
372
393
405
408
367
324
298
299
301
303
303
309
309
314
318
322
326
328
336
310
311
371
379
327
331
341
339
345
356
374
390
407
410
384
333
306
304
305
307
308
313
311
319
321
328
326
329
337
282
388
431
347
334
331
333
335
344
352
367
387
400
404
361
306
293
293
286
293
297
296
294
301
304
311
308
311
314
278
336
377
336
308
312
308
315
322
336
348
368
384
388
343
302
282
282
277
283
282
287
289
290
303
312
310
309
319
238
420
415
322
320
322
336
329
342
346
369
394
405
403
359
311
296
301
301
304
314
308
315
323
319
322
338
329
257
400
403
346
340
352
353
359
366
380
406
429
435
400
356
322
318
323
321
322
327
330
342
343
347
348
346
267
446
428
353
349
350
351
362
369
375
397
412
428
410
356
319
314
307
305
318
323
316
332
329
332
330
334
266
435
415
351
335
328
335
337
347
354
374
393
407
398
340
302
298
296
296
298
301
300
306
315
325
323
319
332
300
311
394
362
327
329
329
328
335
344
360
385
411
406
371
317
292
298
303
297
298
302
302
308
324
318
318
324
325
251
373
396
334
338
340
348
353
353
376
396
410
428
390
341
319
306
310
305
314
303
314
312
316
326
324
328
327
330
250
401
391
326
331
331
335
339
344
362
387
403
412
391
338
310
301
303
307
304
308
314
314
325
325
321
327
329
327
264
373
383
334
330
331
337
341
349
362
385
399
411
372
317
293
294
287
288
290
287
301
303
313
309
313
319
314
298
301
367
361
312
325
323
326
334
346
357
378
400
401
360
316
296
295
289
298
295
301
311
308
321
325
328
328
327
338
255
423
433
345
332
344
340
337
354
357
379
401
419
419
370
327
311
310
315
314
317
315
325
330
340
341
341
343
344
270
448
424
356
343
347
351
353
368
386
390
414
428
422
379
328
327
316
324
324
334
311
329
332
336
335
336
341
323
305
307
396
356
324
329
337
333
341
349
367
392
409
408
375
320
306
308
297
297
308
303
309
308
326
322
328
326
330
317
284
360
380
332
331
339
341
344
352
368
389
406
416
377
329
311
308
303
304
304
309
312
320
323
328
327
335
337
273
433
412
358
333
345
338
349
348
366
379
399
418
407
361
317
308
307
303
306
309
314
319
319
314
327
325
334
333
330
250
420
397
323
335
340
340
345
350
368
382
400
411
382
340
314
298
306
311
301
303
301
306
318
320
324
326
336
276
403
371
357
326
326
342
344
347
361
372
392
407
412
369
324
317
299
308
307
316
315
317
322
328
324
330
331
334
237
406
397
340
325
336
341
343
357
360
392
402
415
384
334
310
306
308
311
310
312
310
315
326
328
322
330
329
296
336
388
357
324
337
334
335
346
358
369
377
406
402
375
324
305
298
309
300
303
316
307
317
324
316
323
327
291
376
372
360
333
337
332
340
354
371
380
401
416
420
374
321
312
308
307
309
311
319
316
316
323
328
325
329
333
319
301
406
375
332
332
334
341
349
352
370
388
408
415
375
326
308
308
304
310
309
315
307
311
318
319
325
331
321
315
300
352
372
328
322
332
332
338
349
369
386
406
409
374
323
304
289
298
296
304
308
303
310
323
319
328
334
341
258
420
409
345
347
344
352
350
358
379
387
405
416
393
344
312
310
315
316
316
312
318
319
324
332
330
324
334
331
240
445
424
329
329
333
333
347
346
353
375
387
408
389
343
306
298
298
304
297
297
297
302
308
309
321
321
319
247
424
406
338
335
323
331
339
343
360
381
386
410
402
344
313
308
315
307
311
312
323
325
325
335
328
338
337
252
404
412
334
340
337
345
347
352
363
384
400
408
392
323
307
309
312
304
309
316
313
323
321
323
326
330
270
406
412
339
332
323
340
344
344
356
377
396
412
400
354
319
304
302
302
298
304
313
321
316
319
321
311
272
382
369
314
319
324
314
330
342
350
373
391
403
353
299
290
291
291
290
300
301
308
308
310
312
314
212
414
382
314
314
313
320
331
336
350
367
392
399
370
318
297
292
302
299
301
306
318
316
329
326
316
261
372
384
322
330
339
327
338
359
361
387
406
406
362
314
305
293
300
304
322
318
325
324
321
315
303
328
376
327
328
334
337
344
354
378
384
408
406
366
330
309
309
313
316
333
336
328
333
334
331
253
382
390
324
322
325
334
333
339
354
374
384
391
354
304
287
281
285
284
294
295
305
302
303
307
239
390
390
320
310
315
318
325
331
343
359
382
388
378
329
295
295
294
293
298
301
313
317
320
320
326
311
305
342
370
330
331
337
340
350
356
376
394
400
405
365
324
313
308
312
313
325
332
333
329
331
335
304
386
365
366
340
340
346
355
355
370
386
405
421
411
371
338
329
328
329
336
343
347
347
350
355
345
319
394
395
350
354
358
359
363
371
391
406
419
413
365
320
314
311
310
309
317
323
320
317
325
323
300
324
404
356
327
336
327
336
339
348
366
385
396
389
347
306
298
295
299
303
293
300
298
300
305
298
298
297
219
333
357
293
300
302
313
311
330
344
367
382
397
371
324
299
301
301
303
304
317
320
332
328
334
345
324
341
401
381
341
358
355
352
374
359
373
405
416
416
362
316
305
304
304
331
327
333
323
340
330
338
344
277
367
383
337
336
347
344
350
358
373
388
396
405
358
324
308
303
307
302
303
312
326
322
324
329
326
269
400
402
345
329
332
333
340
346
356
368
390
396
382
339
315
305
307
308
309
308
307
320
322
322
324
325
320
260
377
362
319
315
317
322
330
333
352
369
389
397
356
311
299
302
299
301
302
309
310
315
328
320
332
331
332
252
435
419
339
338
340
342
346
353
364
381
402
409
389
338
310
304
303
302
318
300
319
311
324
322
334
332
328
334
319
273
409
359
331
326
332
302
322
336
355
383
392
398
363
319
306
305
303
297
302
299
299
308
312
321
329
328
339
332
286
380
375
335
337
333
337
340
338
362
385
389
398
360
318
301
300
298
298
295
300
305
308
303
313
320
321
325
328
328
252
378
390
324
328
330
332
338
344
359
376
393
402
384
333
310
307
301
307
307
313
315
322
330
327
330
334
338
258
436
412
344
340
341
341
346
351
359
372
388
400
381
337
307
304
305
303
304
303
307
306
306
307
310
316
318
318
325
281
352
396
344
321
321
327
336
335
342
361
379
392
387
355
314
304
301
304
305
308
311
316
319
319
319
324
330
331
332
336
322
308
377
378
338
342
350
346
354
360
376
394
409
410
387
338
325
322
317
323
321
329
324
335
332
335
336
345
343
342
344
277
440
429
353
340
344
347
356
354
362
379
400
406
399
365
323
314
314
315
312
320
319
321
324
330
320
327
331
331
337
333
310
337
385
366
336
340
339
341
344
352
369
380
395
397
369
322
306
302
301
300
305
308
315
316
310
317
326
325
325
329
331
266
378
389
338
337
343
346
348
363
367
389
402
411
388
336
318
311
316
309
313
320
319
316
318
320
322
329
329
333
250
428
405
330
326
326
338
333
335
359
365
384
394
372
336
303
291
287
289
289
287
297
300
298
296
302
306
306
309
312
240
414
404
324
320
327
327
331
342
351
366
384
398
384
339
304
298
295
305
293
306
311
309
310
321
320
321
325
329
254
382
393
332
332
341
339
345
352
366
389
398
402
390
344
321
310
312
314
321
322
331
325
331
344
347
350
355
301
383
386
337
349
346
344
344
358
370
388
392
389
363
321
307
315
304
316
328
337
355
351
363
361
366
372
313
496
454
384
365
362
362
358
362
369
387
402
414
412
349
320
315
311
304
303
298
315
313
304
295
314
299
291
200
423
340
281
292
291
298
295
316
326
358
367
374
334
289
272
273
268
284
277
280
281
294
296
293
310
316
296
237
373
354
302
312
306
321
320
346
403
353
372
409
385
329
312
312
315
313
314
320
324
325
335
337
331
332
335
337
257
467
428
354
340
334
344
344
351
367
382
409
409
405
353
314
306
306
304
308
310
313
316
316
318
320
326
331
334
336
340
344
256
483
422
349
338
342
346
350
361
372
388
406
420
417
370
326
312
310
310
312
313
318
322
322
322
324
326
328
329
326
332
337
339
337
339
339
254
480
426
342
336
337
341
342
347
355
372
389
400
403
366
316
295
291
289
290
295
297
300
301
302
304
304
303
309
306
307
309
308
312
309
311
311
311
306
305
319
316
319
321
321
239
444
377
318
322
321
327
330
336
350
366
384
400
402
364
320
303
303
302
305
309
313
317
318
321
323
326
327
329
333
331
331
340
342
343
345
325
330
417
383
345
344
347
349
352
361
374
393
410
421
404
350
317
308
306
304
308
311
316
319
319
319
324
324
324
322
323
335
333
335
338
338
243
445
399
333
336
339
343
348
353
366
381
400
414
411
365
322
308
305
307
310
311
317
318
321
322
323
323
322
322
320
331
330
334
336
332
267
402
384
330
334
335
340
342
351
360
379
396
408
399
349
311
301
298
298
300
305
308
312
314
313
315
314
314
313
322
324
326
327
329
255
431
410
337
325
327
330
334
340
348
363
383
396
404
376
325
301
297
297
301
301
308
309
312
316
319
321
321
320
320
329
330
333
336
340
281
417
422
355
338
341
345
350
354
363
377
397
412
420
396
345
321
315
316
315
319
322
324
328
331
332
333
334
332
331
335
342
343
347
346
327
317
405
380
339
343
346
349
352
357
369
386
403
414
401
352
316
308
305
305
308
312
315
318
321
323
324
324
324
320
321
331
331
335
336
336
244
456
408
335
335
336
340
342
348
355
371
390
402
405
371
321
304
302
303
303
304
307
312
314
316
317
318
317
312
314
324
323
323
323
325
243
437
400
322
319
321
323
329
335
344
363
379
392
397
365
312
289
287
287
291
295
299
305
308
310
315
313
315
316
316
325
328
328
331
315
323
391
374
332
336
338
342
349
358
370
389
407
416
403
353
319
310
308
307
311
317
318
322
327
324
324
325
325
334
333
335
338
330
283
394
386
336
341
342
345
350
360
373
390
406
416
406
358
318
312
312
310
315
318
318
319
321
322
322
320
321
333
333
334
338
340
250
436
404
336
338
341
344
345
351
363
379
397
411
409
367
322
309
306
307
310
310
315
318
320
321
323
323
321
322
330
332
334
337
330
275
405
386
333
332
334
336
341
346
358
378
392
402
396
350
310
299
297
293
295
298
301
303
305
305
305
306
312
314
319
319
325
270
416
385
348
323
326
327
332
337
349
361
382
394
404
377
324
298
292
290
293
295
299
303
304
304
305
306
306
312
314
318
321
298
328
405
361
320
322
326
330
335
347
360
383
401
414
395
339
308
310
309
307
311
313
316
324
325
332
331
330
363
329
334
331
322
191
431
413
315
322
327
292
314
332
338
342
371
391
393
340
299
278
276
291
281
282
296
286
287
297
296
302
310
315
231
452
447
345
328
331
332
351
341
355
385
401
421
420
382
321
313
307
314
311
315
324
321
332
338
345
340
343
350
234
474
485
340
335
334
338
341
353
361
384
403
423
426
376
326
307
314
316
317
324
321
326
322
326
336
333
338
337
339
210
482
462
333
339
332
343
344
363
364
393
456
424
408
366
322
317
324
312
314
308
317
320
329
336
333
339
332
341
224
428
442
328
324
319
328
331
338
346
361
390
403
398
351
306
294
295
292
302
303
316
280
307
318
311
329
323
209
451
430
315
328
321
327
339
342
356
387
402
418
416
365
322
311
314
313
316
315
317
320
326
328
329
331
334
255
426
482
347
336
338
341
346
341
363
379
398
407
405
375
321
307
305
308
312
314
322
330
340
342
338
342
339
262
390
392
332
332
338
330
337
339
354
378
384
403
380
334
307
297
298
291
291
293
302
301
305
303
300
301
298
238
331
349
292
293
294
300
305
316
334
354
372
387
376
325
295
290
288
291
295
299
305
311
312
312
316
319
262
392
408
343
323
325
329
335
340
347
359
377
391
395
360
317
308
310
313
314
319
321
327
335
335
337
343
347
274
459
445
357
350
351
336
359
354
360
411
413
434
438
388
342
321
302
314
306
314
334
314
312
333
319
311
329
386
364
385
366
364
381
384
395
406
394
430
430
421
384
322
288
277
287
266
278
261
345
269
276
310
286
306
196
529
368
294
324
340
319
338
387
381
419
437
441
439
380
332
331
345
341
355
339
341
368
362
376
383
378
270
454
451
350
346
354
342
353
368
381
404
426
438
441
380
346
325
314
301
296
276
281
278
287
282
294
298
303
218
427
412
321
310
303
298
298
301
305
333
341
358
368
329
287
271
270
266
275
275
285
285
291
298
302
307
277
339
398
351
316
322
327
332
338
344
358
373
382
393
360
314
299
295
296
306
309
310
313
320
325
328
327
333
268
405
422
348
321
326
324
336
339
351
367
383
394
401
372
319
304
303
307
306
308
312
323
330
325
333
335
336
234
451
429
334
337
336
344
347
358
367
386
395
408
401
355
313
307
307
311
312
315
323
326
334
334
334
337
340
235
429
409
328
329
327
329
332
340
348
364
372
379
365
316
276
269
270
270
275
274
281
282
291
289
296
302
281
316
324
352
311
313
319
327
337
348
363
382
394
403
380
331
308
308
309
313
318
322
330
331
335
333
336
340
249
473
440
344
335
338
339
342
349
359
377
393
403
406
357
310
305
296
294
284
294
285
289
277
278
285
283
285
213
421
354
303
296
302
306
317
328
344
366
381
399
399
353
312
304
306
304
309
311
315
325
325
331
330
336
342
309
352
433
367
335
339
339
344
352
362
378
399
414
423
386
333
312
312
310
311
313
316
316
317
314
322
322
325
328
314
251
483
377
339
310
317
341
336
369
370
405
404
430
391
336
301
278
292
292
265
296
294
296
318
317
334
331
325
335
330
333
330
324
231
459
399
335
338
337
348
342
352
363
383
397
403
399
350
302
296
294
290
300
295
292
302
307
302
308
311
313
298
301
301
311
302
303
311
291
242
400
361
304
306
305
309
317
319
335
351
366
379
376
336
298
293
293
293
299
303
307
315
315
318
316
337
339
344
351
351
235
453
445
343
348
348
352
354
365
381
400
415
426
423
374
336
324
322
323
327
325
327
327
330
328
330
325
342
341
344
345
343
227
452
418
327
331
332
337
342
345
360
380
395
407
399
351
311
304
301
304
304
306
309
312
313
308
311
316
325
322
328
327
282
352
437
354
321
321
325
328
334
342
356
375
393
402
378
325
298
296
295
296
297
299
302
303
303
301
303
314
315
317
316
303
252
396
366
306
310
313
316
319
328
341
363
377
388
372
317
287
282
284
287
288
293
299
303
307
304
303
320
321
327
329
333
234
448
452
330
336
339
347
340
347
357
375
397
397
413
370
330
310
307
312
311
317
325
328
337
332
349
356
358
366
356
329
383
421
364
363
368
370
374
383
397
412
427
437
416
361
331
327
325
325
326
331
331
330
331
332
330
339
341
342
346
328
296
439
383
334
335
338
341
345
353
366
385
401
411
390
334
308
303
303
304
304
309
311
313
314
312
313
325
325
329
328
332
230
458
446
330
327
326
328
331
337
346
364
386
399
403
360
311
296
295
295
297
301
305
308
312
314
315
312
311
326
328
327
330
331
220
455
441
322
325
328
331
336
338
349
362
382
393
395
356
302
285
281
279
280
282
282
289
292
291
290
298
305
318
322
323
316
308
234
417
381
312
317
319
320
326
333
344
361
380
391
385
329
292
284
283
285
277
286
290
293
298
305
300
307
298
324
320
318
329
328
233
385
410
328
332
341
344
357
370
388
404
425
441
440
389
336
326
326
324
328
334
338
339
343
342
345
338
344
349
346
352
348
341
270
409
389
331
324
329
326
330
333
340
351
370
377
369
321
278
270
268
268
275
273
279
285
285
284
291
292
296
298
295
232
352
365
301
305
313
317
324
335
352
373
396
409
394
341
305
306
303
308
314
319
320
326
328
336
337
341
346
348
245
457
424
345
348
349
353
357
366
380
398
417
433
423
365
331
322
325
325
325
327
333
336
334
338
340
346
347
348
354
308
371
452
378
342
342
343
348
351
360
375
397
412
422
396
335
310
307
306
307
310
312
315
319
317
319
326
329
329
333
339
253
434
454
340
331
332
334
335
340
350
365
386
403
407
369
317
302
300
298
300
303
307
312
314
315
315
314
317
315
328
326
329
334
256
410
403
327
302
305
307
318
327
344
368
392
406
422
386
340
308
307
310
311
315
320
323
323
327
333
337
341
346
346
256
474
453
354
341
344
347
350
355
364
381
398
414
413
368
315
299
296
288
287
289
288
288
288
287
290
288
288
288
239
328
380
302
271
271
268
272
281
286
302
322
344
350
307
270
237
234
236
240
236
255
254
267
295
295
280
284
290
278
202
365
343
290
299
317
320
349
340
376
393
414
430
429
380
350
350
351
358
361
363
363
363
369
367
372
376
382
243
626
468
371
373
376
374
380
383
390
411
429
444
440
383
346
342
342
340
339
343
345
344
348
357
358
358
356
359
248
536
475
354
348
348
351
353
361
371
387
407
420
425
377
328
318
315
312
312
315
317
319
322
321
324
326
330
330
331
332
246
418
471
339
319
320
320
324
329
336
347
366
378
387
358
303
287
282
281
281
284
288
292
294
295
297
310
312
313
313
301
242
404
378
314
320
323
327
331
342
356
375
391
401
386
331
304
298
299
301
305
310
312
314
316
329
333
336
339
341
232
426
425
336
337
341
344
349
352
363
377
393
406
396
343
306
299
293
294
294
294
293
300
301
304
309
311
313
244
382
410
327
308
309
315
317
324
328
347
365
383
389
355
302
287
291
292
295
297
300
309
311
312
327
323
328
336
317
307
409
386
339
344
342
349
351
365
371
395
415
430
399
349
322
314
312
313
317
317
326
326
325
339
345
343
346
348
255
423
436
347
352
354
363
357
369
376
389
414
421
424
368
331
321
318
316
319
323
324
322
331
330
334
331
336
238
436
433
329
324
320
320
317
325
327
340
361
374
374
312
273
257
268
260
264
265
266
270
268
273
285
288
290
294
268
280
386
340
300
307
307
316
322
334
350
368
392
402
374
323
303
309
314
310
318
323
331
333
335
341
354
353
355
356
359
257
448
446
353
361
360
365
368
372
387
398
422
433
424
372
334
333
334
335
333
338
341
343
348
345
343
353
355
351
354
354
351
251
457
438
351
351
357
355
363
359
372
383
407
413
414
359
320
312
315
304
310
313
316
318
326
317
320
317
319
333
330
335
335
254
422
445
345
334
328
335
342
342
351
364
385
395
398
372
323
301
298
296
303
300
308
313
319
315
316
316
319
323
328
330
333
309
304
412
373
332
332
338
337
344
348
367
378
398
412
394
334
312
300
299
288
294
292
300
291
296
301
309
300
304
327
325
332
333
337
280
367
420
348
350
355
355
356
366
377
390
406
419
419
368
320
309
307
308
306
312
315
312
308
313
315
326
320
330
330
269
362
464
355
325
323
332
328
332
341
356
379
395
400
373
316
295
297
294
289
294
298
299
303
304
304
301
304
314
313
313
315
283
310
431
346
309
312
315
320
321
332
345
364
387
395
368
316
288
283
290
289
292
298
303
306
311
314
318
319
319
322
332
333
339
339
290
374
468
362
341
344
342
352
355
363
376
397
417
424
405
343
318
314
313
317
322
328
327
333
337
337
342
337
328
348
346
347
352
350
247
447
426
348
351
352
352
360
367
375
388
411
423
421
370
329
317
311
313
320
324
320
328
329
330
331
333
326
328
334
333
338
341
339
234
453
452
339
337
341
342
346
348
352
372
394
405
412
376
322
305
302
303
300
307
313
316
319
322
325
319
319
320
326
324
326
333
304
316
424
363
329
329
333
335
338
347
358
379
392
409
395
340
304
298
295
300
300
306
306
314
315
315
313
317
324
326
328
328
302
316
412
365
326
324
331
332
342
345
360
380
399
414
393
340
302
301
294
299
302
307
314
322
320
325
322
322
320
318
330
333
334
338
326
278
412
386
340
330
337
337
335
351
362
381
393
411
409
347
313
303
307
298
306
314
319
320
322
323
319
323
335
332
334
337
308
334
420
376
340
336
344
339
350
353
373
386
405
421
398
347
316
307
304
302
302
308
301
306
295
296
296
293
295
289
292
187
379
403
283
301
296
298
305
313
319
327
365
371
381
351
302
298
296
300
305
303
311
322
322
328
332
336
341
348
351
254
443
466
352
355
359
370
366
375
381
406
417
435
439
395
338
330
331
333
323
329
336
332
329
334
343
342
343
346
350
241
442
445
350
348
348
355
355
365
373
387
405
422
428
365
320
318
309
314
305
307
314
311
316
323
327
325
330
301
309
361
373
325
319
327
327
334
346
357
378
398
409
378
327
295
295
303
299
300
309
316
312
315
329
329
330
331
332
233
423
412
329
328
331
339
333
346
352
374
391
401
397
345
306
298
298
294
300
295
301
308
299
303
309
313
315
317
317
211
423
420
316
302
307
309
307
311
324
339
356
374
376
334
287
269
272
269
274
271
283
283
294
289
289
302
303
303
305
313
212
421
427
320
321
318
324
328
338
348
363
385
398
408
367
322
303
307
302
307
312
315
313
328
324
332
333
323
336
306
366
366
376
338
340
348
353
358
364
387
406
419
426
401
353
328
321
317
331
327
339
331
337
341
350
341
353
353
263
417
420
348
350
350
353
361
364
383
392
407
424
415
365
336
323
319
323
322
323
330
328
332
335
326
331
331
268
430
377
333
326
328
333
335
334
357
370
388
402
379
320
291
288
285
283
289
291
294
301
303
300
302
305
205
419
445
300
295
298
297
304
313
316
334
360
369
373
331
283
273
274
272
282
276
279
282
290
289
287
287
304
306
307
307
316
189
453
398
309
307
314
318
325
332
347
361
386
403
406
354
316
302
306
308
305
310
314
323
324
323
334
332
333
336
350
346
352
351
350
245
472
427
355
351
352
356
361
366
375
395
416
434
422
382
336
328
321
325
329
325
336
333
333
330
336
343
342
342
344
301
374
431
381
341
346
349
353
358
371
385
404
420
430
400
343
327
318
321
314
324
324
325
327
332
319
338
337
341
339
339
236
431
411
334
341
335
333
338
349
359
376
394
408
399
344
309
300
298
304
301
303
309
305
306
307
317
316
326
322
327
230
430
434
326
320
321
323
326
329
343
354
372
391
385
346
294
282
275
276
277
278
285
283
285
281
289
294
299
299
305
216
404
425
312
303
313
308
314
327
330
354
369
383
390
351
303
293
292
294
300
301
305
309
315
314
319
330
330
331
340
283
393
444
363
343
338
343
344
356
364
380
407
421
428
398
346
325
323
326
324
326
332
333
333
332
344
342
348
347
351
241
442
438
348
352
354
352
370
364
372
388
415
417
432
371
325
324
317
311
324
312
323
321
316
319
331
332
330
333
337
232
435
426
337
332
339
342
341
354
359
373
394
408
410
363
314
305
308
311
306
309
313
311
316
320
329
326
326
331
327
261
397
393
336
332
336
336
353
350
362
382
398
413
399
339
304
303
303
304
304
308
311
312
309
317
326
321
330
332
316
277
393
379
328
332
335
339
345
351
366
379
402
418
389
341
307
300
299
301
301
307
310
306
311
320
325
334
332
334
247
386
415
332
337
341
341
354
366
375
399
406
417
405
352
316
308
313
318
324
331
328
329
330
324
325
338
331
338
339
327
256
476
371
329
325
325
325
331
345
348
369
385
402
370
318
287
289
291
293
287
287
297
297
300
293
298
308
314
310
313
313
252
360
447
335
308
315
319
321
330
342
355
373
397
403
377
319
299
298
297
304
306
314
315
323
323
327
325
321
325
331
336
335
334
337
229
450
436
337
339
335
342
348
346
359
373
394
413
412
374
325
311
313
308
311
315
323
325
327
330
336
323
324
335
336
337
338
340
280
404
442
359
337
336
346
339
347
354
367
390
406
417
392
339
311
303
303
307
307
309
318
315
318
314
312
327
323
329
330
336
241
438
431
343
336
334
341
351
354
370
376
401
414
419
379
330
309
310
310
309
315
316
319
327
326
329
325
322
329
332
336
335
337
272
398
457
350
331
333
337
342
342
356
363
385
403
421
382
333
311
303
304
303
311
313
313
316
325
325
321
323
330
332
332
335
337
297
359
433
358
338
332
337
337
341
349
370
381
402
413
397
338
308
302
299
301
304
312
314
314
317
322
318
331
333
340
335
333
257
403
398
338
334
341
343
349
361
367
387
403
416
412
362
316
310
304
307
308
315
314
323
320
321
322
324
320
332
331
337
333
319
285
428
376
329
334
335
337
340
346
366
378
397
409
400
344
307
308
306
314
299
308
314
315
317
307
324
327
336
331
330
284
389
391
368
333
334
328
343
346
348
363
380
392
410
383
337
302
301
306
299
308
303
314
312
321
332
323
332
328
250
425
443
336
329
325
320
324
334
349
357
382
391
395
358
306
299
295
299
303
305
300
314
314
320
320
327
330
324
269
402
379
325
329
340
342
341
353
373
395
404
421
392
338
302
307
311
305
308
310
306
317
324
320
324
332
331
254
421
427
347
330
338
335
344
341
359
374
387
408
415
369
320
297
304
301
302
309
300
314
322
324
321
329
333
338
234
427
429
331
335
342
337
350
354
367
382
403
418
403
358
313
308
310
304
312
311
315
315
315
320
331
330
335
338
320
277
431
372
333
332
333
339
347
355
360
387
407
416
387
336
312
304
304
302
306
307
309
315
311
311
322
327
329
319
333
240
436
431
343
323
331
333
336
340
355
367
386
401
404
357
314
299
293
291
293
293
308
314
305
313
317
327
328
328
335
275
428
432
359
336
342
340
346
344
357
374
403
418
426
380
324
305
299
293
296
296
293
308
301
296
298
303
307
306
310
304
209
422
423
306
298
299
299
306
307
318
339
359
376
385
338
289
275
275
274
274
278
280
284
283
293
289
296
304
307
308
311
324
272
364
421
353
323
323
331
335
334
343
366
385
407
415
394
344
316
314
307
312
317
321
326
334
335
335
336
348
351
351
355
354
277
415
415
357
352
356
362
364
375
386
402
427
442
427
380
331
323
318
320
316
327
326
330
336
326
329
336
342
341
344
348
232
474
437
341
343
336
341
345
342
361
373
393
409
412
366
317
301
305
303
303
304
306
317
313
316
317
330
325
331
329
334
244
435
452
342
331
333
331
335
344
350
371
388
409
416
379
323
308
306
305
304
308
307
312
318
318
321
323
324
325
330
330
336
337
320
298
419
384
338
332
339
345
348
350
366
387
407
416
404
356
315
304
302
303
310
308
315
318
321
324
320
325
325
335
333
335
341
249
447
454
343
338
330
333
340
344
352
369
388
413
415
383
329
307
301
308
307
310
309
312
320
318
320
320
329
331
331
334
338
305
331
418
363
332
337
338
338
347
349
366
381
401
410
397
343
315
301
296
300
298
304
306
311
311
314
319
330
325
333
331
263
424
410
343
329
331
325
339
347
355
374
396
416
417
386
335
305
309
315
309
313
315
320
318
321
324
333
335
338
345
257
456
456
337
335
325
328
341
343
352
363
389
407
412
374
314
307
296
300
303
304
306
316
315
319
317
322
329
329
333
338
315
296
447
378
331
334
334
342
340
353
358
383
406
422
392
341
312
299
308
304
303
310
316
312
315
313
316
327
327
329
328
331
225
430
428
327
331
328
343
333
337
355
370
390
405
413
366
310
300
302
296
289
291
303
313
323
316
311
326
325
322
341
339
332
256
383
390
345
335
346
345
353
356
369
389
412
417
405
365
319
308
309
305
311
313
316
318
313
314
320
328
327
335
330
228
438
410
327
331
329
334
336
346
361
374
393
410
399
352
304
303
309
304
305
317
308
319
318
321
315
330
328
331
338
333
239
441
445
339
328
332
326
333
341
353
364
391
405
415
365
317
295
302
297
299
303
309
310
318
319
322
314
315
327
332
323
335
335
246
441
452
341
330
332
342
336
349
357
368
389
401
420
389
336
307
306
308
308
309
317
317
331
327
325
335
327
328
337
338
342
345
344
260
443
460
350
337
340
341
345
353
355
368
393
414
425
390
338
310
307
308
307
308
317
315
321
327
324
330
326
318
325
329
333
335
335
338
240
440
428
333
329
332
334
334
351
347
362
381
399
412
378
326
305
299
302
302
307
312
317
319
320
318
310
328
318
322
324
326
226
454
446
329
319
320
321
334
339
344
372
392
406
413
377
323
296
301
300
295
310
320
325
337
337
341
351
366
346
350
339
348
342
340
352
263
467
477
360
357
360
354
358
362
368
384
402
417
428
401
345
317
309
305
317
308
307
317
322
327
321
329
328
331
328
327
331
276
364
423
353
320
326
325
327
337
342
353
373
388
399
380
324
295
287
288
287
290
293
298
301
302
305
308
313
313
316
318
283
328
404
357
320
322
322
323
331
340
355
375
395
407
391
338
305
298
296
300
301
304
310
312
316
320
324
329
332
335
300
359
405
371
334
335
335
338
343
351
365
385
402
414
391
335
303
301
299
300
302
308
309
315
318
315
315
326
325
328
331
335
226
462
439
334
332
334
337
340
345
354
373
392
410
417
380
331
312
310
312
313
312
317
321
326
324
327
331
339
339
342
345
315
341
427
379
343
346
344
348
353
360
374
392
413
423
411
358
321
312
311
310
311
314
319
325
325
327
329
338
336
338
342
332
281
394
394
338
338
341
342
345
353
366
383
400
412
403
355
314
303
301
302
303
305
309
312
313
315
318
327
327
329
331
324
249
423
387
327
329
331
334
338
345
357
376
395
409
403
354
314
305
304
303
302
304
309
309
309
312
323
325
327
330
334
248
440
435
339
332
331
335
338
345
357
371
392
409
414
382
333
308
305
304
305
306
309
316
314
319
328
331
334
335
338
264
452
426
353
334
338
341
344
350
359
376
395
413
424
382
334
301
305
305
310
310
