409
410
394
346
318
307
308
307
306
310
311
314
313
319
316
319
323
321
325
329
276
412
371
339
328
328
330
332
341
352
367
383
398
402
389
347
313
305
303
303
304
302
308
308
315
311
317
319
320
322
325
311
315
363
359
330
331
331
341
345
353
364
384
395
408
405
364
325
309
312
310
310
315
315
318
324
327
325
327
326
331
332
269
417
368
334
335
336
338
344
352
366
380
397
412
414
380
337
318
316
311
319
317
321
320
325
328
330
337
328
330
333
338
324
321
350
367
334
341
339
343
349
359
367
383
396
405
399
366
323
305
300
297
304
302
304
312
316
315
308
310
316
317
300
333
339
344
326
328
331
337
341
355
366
385
398
408
400
358
322
307
306
307
309
313
324
328
337
327
325
326
327
329
269
448
374
339
334
337
339
345
355
366
381
398
411
420
393
350
319
314
311
314
313
316
317
320
321
331
330
327
328
328
329
316
325
381
363
331
333
334
338
346
353
365
383
402
409
401
360
321
307
304
304
304
307
311
315
316
318
322
331
327
326
328
328
330
261
440
379
336
336
336
342
347
352
365
381
397
410
417
393
348
320
313
313
314
316
317
322
324
325
327
327
330
330
332
331
334
312
355
356
365
338
341
341
344
352
361
377
388
401
411
404
368
332
316
312
312
312
316
320
321
324
326
325
329
330
329
332
335
266
439
377
341
337
339
340
347
355
367
385
402
411
413
390
339
318
311
310
311
313
315
320
319
322
321
323
327
333
334
333
331
336
263
446
382
337
335
336
338
345
351
360
375
394
406
411
388
343
316
310
308
306
307
308
312
316
316
320
317
319
323
326
326
327
329
331
265
440
378
336
329
330
331
336
343
354
369
386
400
407
391
346
316
308
306
306
309
310
314
319
322
321
324
325
328
334
333
333
338
338
307
370
373
359
340
343
346
349
354
364
376
392
406
413
406
368
329
315
310
310
312
315
317
318
319
320
321
321
325
331
330
331
331
332
324
308
370
365
335
337
339
339
347
356
369
384
396
408
408
374
330
312
307
304
306
306
307
312
312
312
316
316
319
320
322
324
326
325
269
386
357
332
332
333
339
342
352
361
378
392
404
407
388
346
320
314
312
312
314
316
317
320
321
321
323
329
328
329
330
335
316
352
361
365
335
336
338
345
347
356
373
385
403
412
410
371
331
313
307
305
305
310
312
316
320
319
320
324
331
328
326
327
329
324
289
383
367
332
336
334
337
347
354
366
382
402
409
409
379
335
316
310
312
310
313
312
314
315
318
316
320
322
328
327
325
327
329
288
386
386
349
327
327
327
332
338
348
361
376
392
401
395
353
315
303
302
299
301
305
308
309
311
313
314
316
319
321
323
323
325
328
256
447
379
332
330
333
335
340
347
360
377
394
407
413
393
347
321
314
311
311
314
316
320
323
325
326
325
324
329
332
330
331
332
330
285
380
367
334
336
338
340
346
354
364
378
390
403
402
375
330
304
303
297
298
299
300
302
305
303
303
307
309
308
310
311
312
306
292
333
343
316
322
325
330
335
346
358
376
391
404
407
377
336
315
309
310
313
315
320
320
322
324
326
329
334
335
334
337
340
333
310
392
375
340
342
344
348
353
363
375
389
405
414
411
382
338
319
315
315
315
318
318
322
323
325
324
322
326
333
332
333
333
335
310
351
372
360
333
334
335
336
342
353
369
386
397
406
405
370
325
309
306
306
307
308
312
314
316
315
317
317
317
323
323
325
328
328
329
263
430
374
337
332
334
334
338
347
358
369
387
398
402
392
353
318
308
305
308
309
309
313
314
315
315
317
319
324
324
328
326
331
265
440
368
338
334
331
338
342
350
362
376
391
402
408
392
347
316
307
306
308
311
315
315
318
320
320
318
323
324
327
329
329
333
334
267
435
374
334
332
334
336
340
349
361
377
390
404
409
390
345
314
306
303
303
304
309
309
314
315
318
319
318
325
327
326
327
327
329
259
429
371
331
331
333
338
339
347
359
372
390
402
407
388
346
316
308
306
308
310
313
316
316
319
322
320
324
326
328
331
330
333
336
269
446
380
339
337
338
338
344
351
359
372
387
400
407
395
354
321
307
307
305
306
308
309
312
313
313
319
322
324
324
328
331
329
287
381
362
335
338
338
342
345
354
366
381
397
408
414
388
341
318
310
309
309
311
314
317
319
320
320
323
324
330
327
331
330
335
278
440
381
349
335
338
338
344
350
360
373
390
405
412
401
360
324
305
306
307
305
305
309
310
314
313
314
312
314
321
321
324
323
327
270
429
379
343
329
332
334
339
345
356
370
387
404
411
404
363
323
312
309
309
308
311
315
319
321
321
319
321
324
328
329
330
330
336
270
445
377
337
331
330
334
341
347
357
369
386
398
409
395
357
318
304
303
305
305
307
309
313
316
315
318
321
323
324
327
330
331
267
444
375
341
338
340
345
349
358
370
383
398
413
419
401
361
328
317
314
313
313
317
320
322
324
324
326
330
333
336
336
335
339
337
278
416
373
336
337
339
340
344
352
364
379
395
408
410
385
337
311
305
307
309
307
308
309
313
318
319
318
320
321
324
326
326
327
330
261
436
371
325
324
327
324
330
336
347
359
376
390
393
384
345
310
295
292
291
296
297
300
302
306
309
311
318
316
318
319
323
323
293
359
356
333
338
338
340
350
359
370
388
400
411
413
385
340
318
311
313
312
316
317
321
321
324
322
322
330
329
331
338
340
290
428
384
357
342
344
345
348
352
362
377
393
408
416
407
364
326
316
313
314
317
319
321
323
324
327
326
328
330
335
333
336
338
338
272
451
386
341
340
341
340
345
352
362
375
393
405
412
400
356
322
311
311
312
314
312
316
317
316
319
317
320
325
324
323
326
326
309
337
347
354
327
330
329
332
340
347
362
375
392
401
400
368
325
306
296
299
296
298
305
310
307
313
316
322
317
318
319
325
294
383
354
356
331
337
336
342
350
359
373
391
404
414
405
375
328
315
311
308
314
315
319
319
323
321
324
330
327
330
332
336
309
359
365
359
331
336
338
340
348
357
369
388
401
413
409
372
330
315
306
311
311
314
314
320
322
321
325
332
333
330
331
334
336
311
359
372
362
336
339
339
343
350
360
373
390
404
414
410
374
333
314
311
309
311
313
313
315
318
323
331
328
323
325
329
328
324
282
377
358
328
331
332
337
344
353
362
377
393
406
406
381
335
311
306
305
304
308
307
310
313
315
315
315
318
326
322
325
324
327
321
291
362
351
323
328
329
335
340
352
361
375
390
401
407
380
336
308
302
302
301
304
304
309
313
317
327
326
319
320
322
323
329
270
409
354
336
338
337
340
348
358
367
383
403
412
419
394
348
321
312
307
309
310
311
314
316
317
320
332
320
320
320
321
324
286
374
362
346
325
327
330
334
342
353
364
381
399
407
404
364
321
306
301
302
302
305
310
312
313
316
316
320
323
329
324
323
326
329
331
263
454
389
340
336
338
339
344
351
361
376
394
409
416
404
361
325
314
311
310
311
312
312
317
318
320
322
322
324
331
326
325
326
326
329
260
443
380
331
328
330
335
340
345
355
371
387
400
408
399
352
318
306
305
303
303
306
309
312
312
313
312
316
313
319
320
319
323
327
283
407
357
348
330
330
333
335
345
356
366
382
395
405
403
368
326
310
304
307
308
309
316
317
321
327
328
321
325
325
330
330
279
391
363
335
336
341
344
352
358
371
387
402
414
419
393
345
323
312
311
312
314
315
319
325
327
336
331
327
327
328
329
299
360
370
352
330
332
335
338
346
357
371
389
404
413
409
373
330
316
310
309
312
313
315
319
322
322
324
337
329
324
326
327
331
282
403
382
344
330
331
334
336
343
352
370
386
402
410
403
360
321
307
305
306
306
307
310
313
318
318
322
320
320
320
326
326
330
329
333
299
376
376
352
335
335
334
339
347
355
367
384
399
409
409
376
336
314
309
306
305
307
311
317
319
317
319
319
326
326
326
327
333
291
402
357
358
334
336
338
340
348
357
371
387
400
411
407
377
335
319
315
317
320
320
324
324
323
329
335
336
331
331
330
335
327
286
384
369
336
334
336
341
345
354
367
382
399
412
412
384
341
315
311
309
310
311
313
315
315
317
317
321
330
329
326
330
330
332
267
410
371
330
331
333
336
341
350
363
376
391
406
411
389
345
316
308
303
305
308
305
314
315
319
314
317
323
323
323
321
325
325
268
391
349
324
323
328
330
337
344
358
368
383
393
400
383
347
316
302
298
299
304
312
317
320
318
321
326
325
331
333
336
337
268
455
377
343
336
338
338
347
355
369
384
397
414
423
404
361
324
314
312
313
318
317
323
323
324
326
330
333
329
325
327
333
309
311
372
371
334
338
340
336
343
359
363
384
400
407
413
380
324
313
299
296
298
303
302
304
308
301
316
317
308
308
304
313
309
254
433
345
315
316
321
324
337
335
345
370
380
392
402
384
333
308
297
295
295
301
302
311
305
311
319
315
316
317
315
321
328
271
410
341
341
322
336
346
336
338
360
364
388
405
415
407
375
327
312
304
312
304
318
315
322
323
329
330
334
328
327
329
327
273
418
359
328
338
333
342
352
356
367
386
398
414
419
386
343
315
312
310
308
309
313
312
316
326
337
322
324
316
321
325
263
444
356
328
325
331
328
338
343
359
374
387
406
412
393
346
314
302
299
297
304
306
312
320
326
324
313
316
319
322
317
283
382
339
326
326
331
329
343
348
362
377
397
407
413
379
331
311
307
306
306
312
311
314
320
326
328
317
319
322
322
326
274
419
347
330
334
337
340
340
356
365
385
403
406
414
390
347
315
310
313
309
307
315
321
319
326
335
329
313
323
322
324
283
420
346
345
332
334
340
344
351
365
374
393
411
420
413
370
328
312
311
308
312
315
316
319
327
323
320
324
331
330
315
350
347
354
333
338
341
347
353
366
380
395
407
414
410
371
328
310
309
307
308
310
312
321
318
326
321
322
323
332
334
325
313
374
362
334
333
333
337
343
356
365
382
401
406
408
375
333
308
300
302
303
308
309
309
312
312
313
311
319
322
321
319
324
327
263
440
346
334
329
328
330
337
343
354
363
382
389
401
387
346
307
295
294
293
295
298
300
303
306
310
313
305
310
312
314
258
443
344
332
324
328
332
336
347
354
370
387
398
406
394
349
314
304
309
302
306
311
314
314
311
317
318
319
320
324
327
287
404
340
352
334
333
338
339
349
361
376
394
405
412
410
366
326
309
310
317
317
317
321
328
324
323
331
331
328
327
331
335
281
439
358
346
337
338
345
346
358
369
375
398
407
413
402
361
329
312
308
308
315
320
318
323
326
326
324
316
324
326
285
401
330
347
325
330
328
336
345
353
367
381
393
398
393
351
313
297
296
298
293
298
304
310
314
310
308
308
308
313
248
412
330
316
316
320
323
328
338
349
366
384
396
405
387
343
312
306
303
305
307
316
324
322
320
319
319
328
301
364
328
347
331
335
343
345
351
360
375
390
404
415
413
367
327
318
318
312
315
320
326
336
328
328
331
335
334
282
454
355
348
338
340
344
353
358
371
388
398
408
416
394
352
324
310
307
313
314
322
316
319
322
319
321
321
326
300
370
344
357
327
336
337
338
349
357
365
384
397
403
396
361
326
310
302
300
305
306
315
319
314
316
316
313
318
315
275
362
334
321
327
325
330
333
342
357
368
384
387
397
367
325
306
300
300
300
302
309
316
321
317
317
318
323
321
281
382
343
329
333
338
340
350
358
370
387
399
412
414
386
340
319
314
315
315
318
325
328
320
313
318
319
322
286
402
334
343
325
327
335
333
344
355
367
381
397
406
390
343
311
301
295
297
300
297
306
303
304
312
311
310
311
311
313
293
329
332
337
311
316
318
324
325
344
348
369
380
389
387
352
307
293
289
288
290
295
298
300
304
303
300
308
312
309
307
313
312
301
311
337
337
320
324
327
333
335
348
362
375
391
407
397
377
334
307
303
306
308
314
310
317
326
331
312
324
326
332
339
291
443
357
363
337
347
356
358
364
376
393
410
421
434
413
379
341
328
324
321
322
327
332
342
342
336
337
341
339
342
288
411
363
341
344
342
348
354
362
374
389
405
414
421
380
335
311
310
305
307
310
315
317
327
326
324
323
326
325
324
280
389
347
325
330
330
337
343
353
365
375
395
406
405
369
324
305
299
301
305
304
307
310
313
317
317
325
321
322
320
324
325
255
437
354
328
327
329
332
337
345
356
369
389
397
405
381
333
303
299
296
300
300
300
304
303
309
312
301
306
302
306
304
242
395
327
308
304
309
310
316
324
338
350
365
378
382
359
313
291
286
284
288
290
295
308
322
312
306
309
307
312
309
297
335
341
327
327
336
343
351
363
375
394
409
417
418
380
338
318
317
314
320
325
327
336
344
345
335
332
336
337
340
279
436
362
344
346
349
350
358
366
377
394
406
419
423
394
351
326
320
316
321
322
322
324
326
330
340
332
328
330
332
333
305
375
354
360
334
338
341
345
352
358
375
391
404
415
406
368
327
309
308
309
308
312
316
317
319
320
320
323
328
328
328
329
329
331
276
433
371
347
335
341
340
342
351
358
374
393
402
411
402
364
325
313
311
313
311
315
317
316
319
320
318
320
329
323
328
330
332
288
420
353
351
333
333
336
338
347
355
365
382
396
400
395
356
319
302
298
294
300
302
305
306
309
315
314
322
321
324
324
327
279
434
354
350
335
336
339
345
354
362
378
394
406
412
399
359
322
313
307
310
312
313
315
314
315
315
321
325
320
323
322
326
330
263
459
362
338
332
332
338
344
351
364
377
395
410
412
400
352
325
317
313
314
317
321
323
319
322
325
331
336
330
326
329
329
332
272
423
355
332
336
338
340
346
355
369
381
398
411
413
389
343
315
307
306
307
306
310
312
313
318
317
321
327
322
322
321
329
313
321
349
353
331
337
337
341
343
357
369
385
401
413
410
379
333
312
308
308
308
310
316
316
315
319
320
328
327
324
325
324
330
292
385
358
351
330
332
334
337
346
355
370
386
398
412
405
365
325
313
306
307
308
311
315
316
315
317
318
321
323
324
323
324
327
326
259
446
360
329
328
329
333
337
345
353
368
383
396
402
386
339
311
299
299
297
300
304
308
309
310
311
307
312
315
311
309
310
312
302
299
351
338
309
315
313
316
320
332
344
362
379
392
391
356
313
295
294
293
295
298
302
306
309
311
312
316
321
321
324
326
325
325
268
434
363
340
339
339
344
349
354
368
384
404
414
417
401
356
328
318
318
316
317
325
329
327
328
326
333
335
333
335
338
337
336
293
379
357
339
344
342
346
353
362
373
387
400
409
411
389
343
318
310
309
313
310
315
314
315
323
321
322
321
324
325
327
272
430
354
338
334
338
343
345
355
367
380
398
407
414
395
348
319
312
309
309
313
317
317
319
321
325
327
324
326
325
326
282
427
355
345
329
333
334
341
347
358
372
384
399
410
401
359
317
306
305
305
307
307
312
312
318
318
315
316
319
321
296
375
343
346
328
329
333
336
343
352
367
382
399
408
399
359
320
306
303
302
303
304
308
314
312
323
319
319
317
321
322
324
267
406
348
325
329
332
335
344
351
363
379
395
407
411
385
339
313
308
310
310
314
316
318
317
320
322
334
335
334
331
333
338
335
280
428
365
336
338
340
344
347
357
369
385
400
413
420
392
349
323
314
311
313
316
314
319
322
324
320
328
327
330
328
330
331
335
271
446
360
332
330
332
336
341
347
362
375
394
405
415
396
352
319
311
308
311
313
313
317
316
320
321
324
325
324
324
326
324
324
270
421
349
332
331
329
336
340
349
362
373
390
399
405
387
342
312
301
302
301
303
306
304
307
308
308
311
310
309
313
312
316
262
444
342
333
323
323
329
334
342
351
369
382
397
404
394
351
315
307
303
306
309
312
316
315
320
319
327
329
326
328
328
334
327
293
393
363
335
338
340
344
352
357
370
386
402
415
417
387
344
325
316
319
319
322
323
327
329
329
327
333
333
332
333
336
333
334
276
442
368
338
338
340
342
346
354
365
377
394
408
413
393
347
319
312
310
306
310
312
316
317
319
319
324
325
325
326
328
328
333
269
449
360
337
334
335
337
340
348
361
374
391
400
411
394
351
317
310
304
305
307
309
314
316
315
319
322
328
325
327
331
331
284
445
363
353
338
340
341
347
355
367
378
395
407
420
408
364
328
313
310
309
311
311
313
316
317
318
321
323
325
325
326
331
333
271
457
362
344
336
338
340
343
350
357
372
389
401
410
399
355
316
304
303
301
303
306
314
316
318
318
320
325
324
325
327
327
329
261
444
358
335
334
332
339
342
352
362
379
395
409
418
393
347
317
310
310
306
313
314
319
324
331
326
327
325
328
330
284
431
361
351
336
339
339
342
348
361
377
391
404
415
399
352
319
307
303
307
308
310
311
312
313
315
320
321
318
317
316
320
313
292
368
353
320
325
325
327
332
344
358
371
389
398
397
369
322
303
298
296
295
300
299
306
306
305
307
313
317
315
318
320
322
319
279
364
346
323
330
329
335
336
346
359
372
384
398
392
375
334
306
293
296
298
303
304
305
315
319
319
317
321
322
327
292
419
339
351
339
338
345
348
359
370
385
399
414
423
415
373
336
322
322
320
323
325
340
338
337
333
332
336
339
283
463
362
349
340
345
347
353
359
372
388
402
418
424
397
349
323
314
310
313
315
318
321
322
328
326
324
322
323
326
306
340
357
357
330
334
336
340
347
355
368
385
403
411
407
366
324
308
307
305
307
309
313
315
319
320
324
326
325
326
331
335
317
327
373
363
335
337
339
342
348
358
370
387
403
414
411
375
334
316
312
310
312
314
317
320
322
323
320
327
325
324
321
325
325
326
259
428
362
333
331
333
335
340
348
357
371
388
401
408
393
348
321
304
305
306
305
315
310
316
316
320
326
329
326
327
332
333
267
445
366
345
340
339
342
348
357
369
383
399
412
420
396
351
324
311
313
314
317
320
321
322
324
329
331
328
331
331
336
309
377
370
363
339
341
342
347
353
366
378
392
408
418
410
368
330
317
313
314
314
315
319
320
321
320
323
324
325
328
332
330
330
333
331
294
387
375
352
336
337
339
344
349
361
370
386
400
408
405
366
326
310
308
306
306
311
314
316
316
317
316
314
318
327
323
323
325
327
316
311
351
353
329
329
332
338
341
352
364
376
395
402
404
376
334
310
307
305
307
312
315
318
320
321
321
326
330
329
330
333
335
326
327
365
362
338
340
344
349
353
361
375
390
404
417
412
377
334
315
309
309
309
312
316
318
321
321
323
323
327
331
331
331
331
334
300
380
370
353
336
338
339
344
350
358
371
387
403
412
406
368
328
313
310
310
306
311
312
316
317
317
319
324
325
325
328
327
329
330
271
428
359
333
333
335
336
344
354
362
377
390
402
407
389
343
313
303
301
299
302
305
309
312
313
317
322
326
324
326
326
329
328
281
388
357
335
339
338
343
347
355
369
384
402
413
417
391
344
321
315
313
313
315
318
321
325
328
330
331
331
333
336
333
335
337
340
292
425
373
351
340
342
342
347
352
362
374
388
403
414
407
363
329
313
309
310
312
311
315
316
317
319
319
321
325
328
326
326
328
331
318
335
339
354
331
335
337
342
351
356
368
386
401
409
410
380
338
317
311
309
312
313
319
320
323
325
325
331
334
333
333
333
337
333
287
396
363
341
341
345
347
353
361
370
387
404
412
417
392
347
320
313
312
313
316
318
320
321
323
322
322
321
325
331
332
332
331
335
311
361
362
357
335
336
337
341
346
356
367
384
399
408
406
374
335
315
308
309
307
310
312
317
316
319
318
319
321
326
323
323
328
326
274
440
350
339
332
335
337
342
347
362
372
388
400
408
395
357
320
307
305
306
311
311
316
320
321
320
324
327
327
329
328
333
335
273
446
357
340
337
338
342
348
351
364
377
393
405
411
393
352
316
304
303
302
304
308
312
314
315
316
316
317
318
324
321
321
324
326
278
414
362
344
327
330
329
333
340
347
361
376
390
398
395
356
316
302
297
297
298
301
305
308
310
311
311
312
314
317
324
318
322
325
329
277
419
356
339
330
335
336
337
342
353
370
383
398
409
399
365
323
311
306
306
307
307
312
315
315
317
320
324
322
325
325
327
330
268
438
354
336
333
333
334
340
349
358
374
387
401
408
391
351
323
303
303
310
307
319
318
316
320
324
324
323
329
328
332
288
415
355
346
331
340
345
342
347
359
376
382
404
411
404
376
335
326
315
318
319
333
334
333
336
349
347
329
338
324
341
328
362
378
353
329
337
341
334
345
357
368
388
402
411
409
377
345
327
324
320
324
321
333
339
349
335
329
329
334
331
295
468
377
351
336
335
344
349
355
369
384
400
408
414
403
356
325
310
310
309
311
313
321
330
326
322
319
324
323
318
323
371
336
324
329
331
334
340
347
359
380
396
401
397
360
317
303
297
297
298
300
304
309
316
326
318
315
316
316
318
308
314
367
336
316
318
323
326
334
342
358
376
394
409
411
378
328
307
303
301
303
302
304
311
314
314
315
318
325
325
321
319
320
324
313
297
380
349
317
322
323
327
333
336
351
364
378
390
393
369
319
293
287
286
290
291
297
296
298
301
301
306
308
312
312
313
318
322
263
405
351
326
327
328
334
341
349
361
376
394
407
414
396
349
319
311
310
309
313
318
320
323
329
323
327
326
332
331
333
333
335
297
415
352
354
336
339
340
348
353
363
377
395
406
420
419
384
341
321
318
313
314
322
323
324
325
328
323
328
328
334
332
333
335
337
282
468
352
348
339
337
346
351
354
361
379
394
404
412
403
367
324
308
305
300
302
307
310
314
310
312
317
314
312
317
324
324
323
326
329
293
409
326
348
331
333
334
339
345
359
371
388
397
408
404
374
330
306
304
304
305
305
316
308
314
312
313
315
314
320
330
323
320
324
322
316
339
329
339
325
327
330
332
346
351
361
375
390
402
399
380
333
307
295
299
302
302
305
307
301
309
313
313
311
316
322
323
321
327
330
334
281
457
333
335
336
337
341
349
356
368
380
396
407
415
405
367
330
313
311
308
313
317
317
326
322
327
327
325
322
331
337
334
334
338
340
322
364
330
363
344
341
351
351
355
364
375
388
403
410
409
385
344
314
307
307
303
306
310
314
313
308
315
314
310
313
315
315
319
317
321
326
265
437
348
323
314
320
328
328
332
343
365
382
393
398
390
339
309
300
286
280
293
297
308
292
296
283
312
300
310
316
326
327
331
329
333
296
427
356
352
346
345
350
353
358
367
387
398
414
426
424
395
350
326
321
318
323
324
326
326
329
325
328
327
326
333
340
328
328
327
332
301
382
355
350
330
334
336
340
345
357
367
382
398
408
410
380
332
309
303
301
302
307
309
312
315
317
320
320
323
321
325
330
329
328
330
333
334
273
427
371
333
334
338
340
342
351
361
374
388
400
407
396
352
318
306
303
303
306
308
310
312
312
313
312
314
314
312
315
321
320
319
319
323
284
378
368
337
317
321
323
324
327
337
350
364
377
386
389
364
317
295
290
288
289
292
296
300
300
305
305
306
308
310
314
318
317
322
324
327
267
443
362
336
330
328
336
337
345
356
367
384
399
405
404
374
336
317
312
312
312
327
328
329
330
333
330
332
334
338
336
337
339
339
281
458
363
354
337
342
345
353
357
369
379
393
407
416
417
383
339
319
313
314
314
318
321
323
326
325
326
328
331
329
332
333
333
329
281
388
366
331
336
335
341
345
353
365
381
395
404
414
395
353
317
307
305
303
307
309
312
312
315
314
314
316
321
317
316
318
319
277
399
349
344
319
323
324
329
336
346
357
371
385
393
392
364
319
299
292
294
293
302
306
306
309
311
309
309
320
319
320
323
325
267
444
365
339
326
332
331
337
347
360
371
389
401
410
407
373
326
307
304
306
307
312
318
319
321
327
329
330
327
332
335
322
332
368
369
342
341
344
348
356
365
376
390
403
416
419
390
339
317
310
311
310
316
320
322
326
325
333
336
335
334
336
338
331
292
423
364
337
339
338
341
346
357
369
385
399
411
416
392
342
317
309
309
309
313
314
317
320
324
325
324
325
327
329
333
275
431
379
345
337
340
338
343
349
360
373
390
400
409
406
365
322
306
303
304
307
308
311
311
316
320
326
321
319
322
322
288
356
363
342
320
322
323
325
330
336
347
361
375
385
388
355
308
287
283
281
282
286
287
292
295
301
293
295
296
298
295
263
327
334
304
310
316
318
324
332
346
356
370
379
383
365
325
299
297
295
299
303
307
309
317
316
312
318
322
322
304
357
325
355
329
332
338
339
352
362
373
389
403
409
414
386
339
320
316
317
322
327
332
342
339
334
334
336
338
318
354
355
368
342
347
348
351
360
367
378
394
408
414
413
382
339
321
318
318
323
323
329
342
332
329
329
328
336
309
366
365
363
333
338
342
344
352
360
374
388
399
406
405
369
325
303
299
299
303
308
320
314
307
305
304
311
299
310
317
338
316
320
322
332
337
344
359
372
384
394
396
365
322
303
303
303
305
313
328
321
312
316
317
320
304
335
341
347
325
332
331
337
343
357
370
385
396
403
401
364
323
310
304
307
309
320
328
321
324
323
322
327
288
388
394
349
332
332
336
337
343
355
369
388
402
413
403
358
320
310
307
306
311
316
314
316
318
319
324
238
479
373
329
327
331
333
340
350
360
376
391
406
408
379
329
307
302
302
304
312
316
316
315
316
317
319
250
412
355
321
326
325
330
337
345
359
372
385
397
397
363
315
297
293
293
294
299
302
299
301
301
304
306
232
440
359
314
307
307
312
318
329
341
359
375
383
390
369
320
295
292
292
295
297
302
309
316
314
313
314
318
321
261
429
374
339
329
331
334
342
350
360
374
388
400
409
399
357
323
314
313
315
319
320
327
333
338
331
332
335
337
337
276
428
372
344
344
347
349
356
364
375
388
402
413
417
398
354
329
320
316
316
320
328
340
330
325
326
326
326
290
409
331
353
333
335
338
343
354
365
374
389
400
406
397
357
324
314
312
314
316
327
338
328
321
320
324
325
271
437
358
344
333
333
340
345
354
366
379
392
401
409
387
345
317
309
309
311
313
321
330
323
322
322
324
327
279
423
362
347
334
336
342
346
352
364
379
392
403
413
391
349
320
315
311
314
315
317
320
324
321
325
331
328
331
335
335
324
305
375
367
334
338
339
340
344
353
367
383
397
405
403
367
323
306
302
302
305
305
308
312
313
317
320
321
320
321
323
323
264
395
359
324
327
329
330
337
345
358
376
391
404
406
372
328
311
307
308
308
312
316
319
319
323
326
328
330
331
332
334
272
444
377
342
336
340
344
347
354
366
381
395
407
415
392
348
320
310
307
311
314
317
320
320
321
323
325
325
327
328
328
326
279
372
360
333
334
337
340
346
354
367
380
394
405
405
376
335
311
306
304
307
308
313
316
316
320
323
328
324
325
329
332
272
450
373
350
341
345
345
351
360
372
388
401
416
421
398
352
322
316
313
315
317
321
323
326
326
326
328
332
332
330
331
334
335
274
412
373
335
336
338
338
345
354
366
382
397
407
411
378
331
310
305
305
306
307
311
314
315
315
315
317
326
326
325
327
328
319
293
367
360
328
332
335
338
345
351
366
385
401
411
408
371
326
308
306
307
308
311
315
319
319
323
320
320
322
329
327
328
330
335
290
414
367
353
337
338
342
346
350
361
375
390
402
411
400
363
325
315
310
305
307
308
308
311
314
315
317
320
325
326
325
327
332
324
304
353
362
336
341
345
348
354
362
375
390
402
414
414
378
335
314
309
308
308
311
318
318
321
322
323
323
324
328
330
331
331
334
337
269
438
376
338
341
341
344
347
358
367
381
398
412
418
395
346
319
312
309
312
312
313
317
320
322
322
324
321
327
329
332
330
329
330
325
307
353
361
331
333
332
335
351
362
375
391
403
411
411
381
336
314
307
308
308
311
313
317
316
318
320
320
321
326
327
326
325
326
324
276
385
361
330
331
334
336
340
347
362
379
396
409
413
381
333
310
305
303
304
308
311
315
319
320
321
325
321
326
334
334
334
336
336
307
372
375
360
338
341
340
341
350
358
375
390
408
417
410
373
333
316
312
310
310
311
315
322
321
323
321
322
324
330
328
330
328
331
277
444
358
353
338
338
341
348
355
366
378
394
407
415
404
363
325
312
309
309
310
314
318
320
322
324
324
325
323
328
327
326
328
332
273
437
373
350
335
335
337
339
345
354
369
384
399
409
401
357
320
309
306
308
310
312
316
317
319
320
322
322
322
323
326
327
326
331
332
269
414
367
331
334
333
337
341
349
360
376
390
404
410
385
337
313
306
306
306
310
311
316
320
321
323
321
322
328
330
333
333
335
332
299
368
366
342
342
344
350
355
363
375
392
405
420
422
394
348
321
314
313
312
314
317
318
322
323
321
322
322
330
326
325
327
329
284
410
359
350
328
330
331
335
340
351
365
379
394
403
397
358
316
300
295
298
300
300
302
304
306
307
306
310
314
319
319
320
326
326
259
441
367
332
330
331
332
336
345
358
372
391
402
411
394
347
315
307
306
308
309
311
315
316
319
321
321
325
328
327
330
331
333
271
441
365
343
337
343
345
351
356
365
382
400
410
419
406
359
327
317
315
316
320
322
325
326
330
332
331
334
335
336
338
340
275
459
379
349
344
348
349
351
359
371
384
401
416
421
400
351
321
314
310
311
315
316
318
319
320
323
322
323
330
328
328
329
331
273
437
378
343
331
333
333
336
343
355
370
388
402
412
399
357
320
308
307
305
305
307
309
312
314
317
315
320
325
325
324
325
329
321
305
356
359
328
335
339
342
348
358
369
383
399
414
412
380
340
317
308
308
308
309
313
317
319
323
325
325
329
330
332
333
334
277
456
364
350
340
340
347
350
358
369
381
398
411
422
408
365
328
315
313
314
315
319
322
324
325
325
323
327
331
329
329
334
333
315
336
365
360
332
333
336
339
345
355
368
385
398
409
407
372
326
308
304
304
306
307
312
314
316
319
318
318
321
328
326
327
328
332
307
352
368
357
335
339
341
344
349
360
373
389
405
414
413
376
333
314
311
310
311
313
315
320
319
323
320
320
324
328
327
327
329
330
276
439
357
345
333
335
335
339
347
358
372
387
399
409
398
360
321
305
304
305
304
309
313
317
319
320
323
327
325
326
328
330
334
273
429
369
341
342
342
346
351
361
372
386
404
417
422
400
352
325
315
315
317
318
321
323
327
327
327
328
332
336
334
335
337
338
325
326
377
366
336
337
340
343
347
359
369
385
400
411
412
377
336
313
309
307
308
309
311
316
314
317
317
318
321
326
325
325
327
329
280
433
360
349
338
341
340
347
351
362
375
391
405
414
404
364
326
312
308
308
310
310
316
319
319
323
323
324
331
329
333
332
334
288
430
359
357
337
340
344
346
353
361
377
394
408
416
409
369
328
313
309
309
312
313
318
318
320
324
321
318
323
328
328
331
331
333
282
426
378
347
335
336
335
341
347
357
370
387
402
411
405
365
324
313
310
311
312
314
316
318
319
320
318
323
330
328
327
331
331
332
276
405
366
332
333
338
340
346
354
364
379
396
407
413
393
347
318
310
308
307
308
313
314
315
318
321
322
325
327
328
327
329
330
273
408
360
337
336
339
345
351
358
369
383
398
410
416
397
352
320
311
310
311
314
316
319
320
321
321
321
325
330
327
328
330
332
323
308
371
364
333
337
338
341
348
356
367
384
399
412
414
386
338
315
309
308
310
314
318
320
324
323
323
320
325
329
328
328
328
329
328
280
386
363
334
335
337
337
342
351
363
376
393
407
410
391
346
316
307
307
305
307
308
311
314
317
316
320
324
323
325
327
328
313
328
341
358
331
335
336
340
344
356
367
382
398
409
412
377
332
311
308
306
307
313
314
319
319
322
322
320
324
332
331
330
331
334
331
294
387
368
337
336
340
341
351
357
358
385
397
409
417
394
339
312
310
305
307
306
308
312
311
317
318
315
319
323
322
327
324
329
272
431
359
333
329
334
335
342
346
357
370
387
407
415
402
350
321
304
302
304
306
308
313
323
312
317
319
325
321
326
325
330
325
300
364
364
332
338
340
345
345
359
370
389
397
414
413
388
340
313
309
307
304
306
311
313
313
313
321
312
317
327
314
322
324
256
445
367
331
324
326
332
341
345
357
366
388
402
403
389
346
314
296
291
295
295
298
304
303
304
306
314
322
319
325
320
323
303
314
361
348
321
323
329
328
336
345
359
377
392
402
406
374
329
303
297
300
295
303
305
308
313
310
318
322
322
323
323
331
312
331
361
367
329
339
338
347
348
360
375
395
408
419
416
385
342
320
311
309
312
313
319
320
323
333
327
334
335
336
338
333
315
380
368
336
345
344
354
356
365
378
392
408
425
421
388
341
320
311
308
312
309
314
316
316
318
316
324
323
321
323
323
323
296
355
373
351
322
329
330
333
340
349
365
380
396
411
407
370
323
306
298
300
305
306
306
313
316
315
314
319
323
321
322
324
325
301
360
360
356
326
329
332
337
341
351
362
382
396
408
405
372
326
304
303
297
302
304
307
309
308
310
309
320
317
321
321
327
292
380
349
355
330
332
337
339
348
359
372
388
406
417
415
373
331
312
309
308
311
312
320
317
320
324
332
332
324
324
323
333
303
348
354
358
328
334
341
340
349
360
373
391
407
418
418
383
334
316
313
312
316
316
316
322
328
340
331
326
323
325
328
300
383
339
352
329
333
338
343
349
358
372
389
405
413
410
372
327
309
304
302
303
308
314
324
333
327
319
319
319
323
299
373
329
350
331
334
339
346
349
362
375
393
409
418
412
374
331
313
313
311
313
315
320
322
327
335
337
330
329
327
330
330
280
420
357
334
337
338
341
347
355
367
381
400
409
414
388
340
314
305
305
305
306
309
311
314
316
320
336
326
321
322
324
327
274
442
363
346
334
333
334
342
347
359
374
392
406
415
405
364
324
308
304
307
308
311
315
317
317
320
328
329
326
326
324
326
312
348
336
353
334
339
343
348
351
358
375
387
400
410
412
382
339
317
311
308
310
313
318
325
338
330
323
323
324
325
318
314
351
349
330
337
337
343
349
359
373
389
401
413
412
376
331
313
307
308
308
309
314
315
321
333
324
320
319
322
324
303
351
346
350
329
330
335
338
344
355
369
388
405
414
411
372
328
313
308
309
308
312
315
317
323
334
325
318
321
321
325
310
321
350
350
327
330
333
339
343
351
365
380
395
405
405
368
323
304
299
297
297
300
303
307
306
313
323
310
311
310
312
316
253
427
335
321
323
321
326
335
342
355
368
380
399
401
385
343
310
302
299
299
300
305
312
323
322
310
310
313
315
316
274
401
333
326
330
334
337
346
354
370
379
400
411
414
387
340
314
311
309
311
309
315
325
339
327
319
320
325
324
311
331
352
347
330
336
341
344
349
358
375
391
405
416
413
375
329
314
308
309
313
314
318
322
329
332
330
328
327
330
333
272
474
359
341
335
338
339
345
350
365
379
394
412
415
397
349
318
306
307
304
310
310
314
314
317
315
324
325
323
325
324
325
323
299
377
350
327
331
333
338
342
355
365
384
396
409
414
384
339
313
307
302
306
309
312
315
317
322
325
327
329
327
326
330
331
267
458
353
338
336
339
345
346
356
367
381
396
412
419
396
349
318
308
305
304
306
310
315
317
316
319
317
318
324
324
328
328
328
275
438
360
341
325
330
331
336
343
355
368
388
401
409
401
360
320
306
304
304
306
307
311
314
318
322
317
321
328
325
324
327
328
326
278
403
353
332
335
337
340
345
355
369
384
400
413
417
393
347
322
313
311
310
312
316
318
319
322
319
324
326
326
323
325
328
332
271
467
357
339
334
336
340
346
351
362
378
394
406
415
399
353
320
309
303
304
307
310
313
318
315
316
317
321
323
324
322
326
326
329
270
449
354
333
332
336
336
342
350
361
377
392
406
415
397
349
315
306
305
303
305
307
312
317
318
322
322
321
325
329
328
329
330
334
304
377
382
359
340
343
342
345
352
358
370
386
404
415
416
378
333
315
308
309
310
310
314
316
319
320
317
322
328
323
326
326
331
331
284
400
346
335
338
338
341
348
353
368
382
397
412
418
398
349
321
310
310
310
313
315
318
321
320
323
327
333
326
332
329
333
324
323
365
356
335
336
339
342
349
358
371
387
404
412
415
382
336
314
305
306
307
310
313
316
316
318
320
318
321
328
325
326
327
330
307
355
364
352
330
332
331
337
343
352
365
383
400
411
411
376
331
308
306
305
305
307
310
311
313
317
319
317
320
327
326
324
327
328
322
306
358
352
329
333
337
342
347
354
369
384
397
410
412
390
343
314
306
306
307
310
314
316
316
318
321
326
329
328
329
330
333
313
354
352
354
333
338
340
344
349
357
370
385
400
411
409
379
335
311
306
305
307
307
314
311
316
316
313
318
323
321
322
317
321
319
291
383
350
327
328
331
334
339
349
361
375
386
407
410
380
334
306
303
299
302
300
302
305
305
307
309
314
317
318
315
316
320
320
262
450
342
329
324
328
329
333
343
351
366
382
395
405
390
351
313
303
301
302
305
311
315
313
317
319
325
326
325
325
325
330
327
284
408
350
334
335
338
342
348
355
367
382
398
411
416
390
344
317
311
307
307
311
312
316
319
319
321
321
321
324
332
331
330
333
335
292
419
369
354
338
339
339
343
352
361
374
389
404
415
412
377
331
312
309
308
312
310
319
320
320
327
321
325
323
328
333
331
331
330
332
328
296
385
355
332
335
338
344
348
356
365
380
397
407
411
394
347
319
308
303
312
308
310
314
318
318
317
318
321
327
324
327
328
330
276
464
354
348
334
338
341
346
352
362
379
392
408
416
412
371
332
312
309
310
311
313
317
315
319
314
320
321
324
321
322
326
329
281
446
359
347
333
332
333
337
344
357
369
384
399
410
407
366
327
308
303
302
306
308
311
313
317
315
320
317
322
327
324
325
327
331
296
397
363
355
334
336
338
343
347
358
371
387
404
417
419
381
335
319
309
308
308
315
312
317
317
319
321
320
325
331
328
328
330
331
331
276
430
352
336
337
340
341
347
354
367
379
395
410
415
400
355
324
311
311
311
314
314
319
321
321
325
326
328
330
332
333
336
338
278
475
365
347
339
339
342
347
354
366
377
395
410
416
407
364
325
308
304
303
303
307
311
312
314
314
314
318
318
322
321
322
323
323
272
445
356
343
330
330
333
335
346
351
368
382
398
407
405
365
323
304
303
298
298
300
304
304
305
308
306
306
309
316
311
312
315
317
291
349
336
335
315
315
320
324
354
364
323
350
374
391
395
368
321
294
295
291
293
294
297
298
304
308
307
314
318
316
316
318
324
322
293
390
348
325
328
337
345
348
360
372
389
407
418
430
399
352
321
313
314
312
315
315
321
323
323
327
330
328
330
335
332
336
274
478
361
347
339
344
347
352
359
368
382
400
412
422
407
364
321
308
306
307
309
312
316
319
319
320
324
323
318
323
330
324
322
325
327
325
283
386
351
327
327
331
333
338
351
361
374
391
406
410
391
348
314
302
301
303
307
308
310
314
315
316
315
320
324
324
327
330
332
278
466
357
346
336
338
343
346
352
360
376
392
404
413
409
371
330
308
304
305
309
308
314
315
317
320
325
326
325
327
332
334
330
307
385
352
336
339
340
344
350
359
373
387
403
416
420
398
350
317
308
307
306
309
312
314
314
313
313
313
317
322
318
322
322
322
300
348
346
345
323
322
328
326
333
341
350
368
384
394
400
368
323
294
288
289
292
289
295
298
299
302
301
308
309
310
313
319
319
321
266
412
336
323
328
330
332
338
349
361
380
395
409
416
402
357
322
310
310
309
312
314
318
320
321
324
327
333
336
336
335
337
340
282
470
357
352
341
342
344
347
358
369
380
400
411
416
414
377
330
313
307
307
308
308
313
315
313
314
317
317
320
317
320
320
326
291
401
327
342
321
324
328
333
340
348
359
374
386
398
398
367
321
300
295
292
292
295
296
300
301
304
303
307
312
306
313
315
320
288
392
343
342
326
331
331
335
341
354
363
382
398
405
407
376
328
308
301
299
304
307
311
314
315
315
318
318
321
327
324
328
328
332
305
378
371
358
337
337
339
343
350
359
376
392
408
421
425
393
342
322
314
313
313
315
320
324
326
327
328
332
329
336
335
338
336
340
337
278
446
362
341
341
341
343
346
355
366
381
396
410
416
408
363
325
308
302
302
304
306
311
314
314
313
319
321
320
320
318
324
325
268
447
341
333
328
332
337
342
351
360
375
393
406
416
409
359
326
304
303
303
305
308
310
312
316
312
315
317
321
319
319
319
320
281
405
349
341
324
327
329
332
337
349
361
378
391
401
401
366
320
300
292
293
295
294
298
304
303
308
306
310
317
317
319
322
326
299
365
351
350
328
330
333
337
342
352
369
385
402
411
413
384
337
311
306
306
307
312
316
316
317
323
324
326
329
328
328
330
331
276
466
356
348
338
341
345
351
357
367
379
396
407
418
408
370
331
314
310
313
312
316
313
313
314
313
310
315
318
313
311
311
310
294
304
379
327
306
307
307
308
315
322
334
351
369
381
388
357
308
287
280
278
281
281
286
288
291
292
294
298
302
308
308
312
312
317
245
461
362
328
323
326
329
336
345
356
371
389
408
417
418
379
335
317
312
313
316
318
323
327
330
332
336
336
340
342
339
343
344
346
290
455
382
363
349
351
351
356
361
368
384
400
411
421
423
391
345
325
318
319
318
320
326
325
324
325
327
331
331
332
331
333
334
274
437
347
340
336
341
344
347
355
366
376
388
399
403
398
360
321
307
303
305
306
307
311
311
315
318
319
317
318
322
325
271
459
341
342
329
333
335
340
345
357
368
383
395
405
401
365
324
304
301
301
301
305
305
308
308
311
313
315
316
317
317
321
267
439
342
338
324
324
327
333
339
350
363
380
395
405
403
369
325
307
303
304
306
307
310
312
315
315
318
323
322
322
323
325
325
269
431
346
334
335
340
340
346
355
369
380
395
403
411
398
357
323
308
308
309
313
315
319
319
324
325
328
332
333
333
332
336
325
320
362
361
334
339
338
343
346
360
370
386
401
410
412
392
340
315
306
308
307
309
309
311
313
312
319
322
319
323
325
326
304
374
334
354
330
334
336
340
344
357
373
386
404
413
413
381
337
314
306
309
313
316
318
321
328
329
328
327
328
329
333
287
446
346
350
332
333
336
340
347
356
370
383
398
404
400
358
317
298
291
291
291
294
299
298
301
301
307
309
307
308
307
308
308
261
386
335
314
318
319
323
329
337
349
367
383
398
401
382
338
306
297
296
299
301
303
309
312
314
314
316
320
317
322
323
324
288
412
344
349
332
335
339
344
352
361
378
390
405
417
413
382
336
318
312
308
311
311
317
322
326
333
330
332
333
331
335
327
317
380
359
340
342
347
347
349
357
371
391
407
418
422
391
339
315
306
305
307
308
311
312
316
317
322
325
323
325
327
324
324
281
416
349
326
329
333
336
342
352
363
379
397
410
417
391
338
308
302
298
298
301
304
305
316
319
311
311
315
316
296
344
355
339
318
323
323
327
335
344
361
380
394
407
403
361
317
299
293
292
292
294
301
308
308
303
304
305
304
303
266
357
327
306
309
310
313
316
327
338
353
369
382
382
348
302
280
275
278
279
282
287
290
292
293
296
297
306
305
306
307
312
316
252
455
354
332
327
330
333
338
347
359
375
394
410
422
420
380
337
322
318
318
321
323
326
329
338
337
336
336
337
342
338
299
414
375
346
350
352
354
360
369
384
400
415
427
430
400
351
326
321
318
319
319
321
321
322
322
318
325
325
322
320
320
320
306
321
336
347
318
320
321
325
330
340
350
363
378
387
391
363
320
293
290
288
289
295
293
293
297
299
303
310
304
305
307
308
310
275
338
333
316
323
325
334
337
350
364
373
381
397
401
386
346
321
305
307
305
311
313
329
319
319
317
320
320
320
306
341
339
335
334
339
346
352
364
375
387
404
414
416
386
339
317
316
317
316
319
320
331
329
328
329
330
333
304
374
393
353
336
336
339
343
352
359
375
391
407
418
414
370
327
312
306
302
304
308
321
318
318
315
317
321
301
329
383
346
321
324
326
329
337
349
363
379
394
402
398
354
312
296
292
290
290
293
300
302
299
298
299
300
302
223
473
345
307
303
306
306
314
324
335
351
368
381
391
378
334
299
290
289
290
295
298
308
308
309
312
313
318
319
256
395
352
331
332
334
337
345
355
366
383
397
406
412
389
344
318
313
312
312
317
319
320
319
327
329
329
328
331
334
328
304
345
357
337
341
342
347
353
363
373
384
394
406
407
388
346
319
310
311
310
314
314
318
328
325
325
322
326
327
323
305
350
351
336
339
339
345
352
362
373
384
392
403
406
377
333
312
304
304
306
309
309
309
310
312
310
308
308
310
311
250
433
338
315
309
314
312
319
324
336
350
364
378
381
367
324
290
281
278
278
283
284
288
288
294
300
297
298
299
303
306
257
378
326
319
319
325
331
340
348
359
375
389
403
408
389
345
315
308
308
312
316
320
322
324
325
330
333
332
333
335
338
338
271
465
368
343
346
347
350
355
366
379
393
408
420
425
399
351
325
318
315
317
319
322
326
330
334
336
336
334
335
335
338
268
478
371
342
339
342
343
347
353
365
381
397
408
415
399
350
316
306
304
304
304
308
311
312
313
312
316
318
314
316
318
321
267
428
353
335
323
325
326
332
339
349
363
378
389
397
390
350
306
296
295
299
295
297
299
311
295
294
299
301
298
299
299
298
291
276
338
327
302
306
308
313
320
334
348
364
378
390
397
372
324
301
299
301
300
306
310
311
315
315
322
326
325
328
329
335
333
277
423
365
343
345
348
353
361
370
384
396
410
424
428
410
367
337
329
328
331
334
334
334
339
336
338
346
341
345
345
345
343
290
414
365
345
347
348
348
356
365
373
391
403
411
418
400
351
323
311
311
310
312
314
311
314
312
312
319
314
313
314
314
311
277
348
342
319
322
324
330
338
343
359
366
379
390
396
375
333
304
294
292
293
293
296
299
297
304
303
308
307
312
311
311
263
433
323
326
321
322
325
332
346
357
370
385
400
409
403
367
327
317
315
316
320
324
324
325
329
331
333
331
331
333
334
269
458
360
341
339
341
344
349
356
368
381
394
404
407
391
344
313
305
301
301
303
304
304
305
305
306
304
304
305
306
302
252
350
332
304
307
309
311
315
325
338
354
368
380
386
359
312
290
284
284
287
290
293
297
304
307
307
307
313
315
319
270
384
340
327
329
334
338
345
354
366
380
395
408
411
388
348
320
317
313
315
317
319
324
329
327
330
331
333
336
300
435
335
361
344
347
352
357
365
379
391
406
418
426
410
374
336
323
321
323
324
324
327
329
332
333
327
327
330
331
283
455
354
352
340
340
344
347
356
366
382
397
408
417
403
361
328
317
316
315
314
317
320
327
330
325
324
325
326
328
273
444
341
332
331
334
336
344
352
365
380
398
410
412
386
340
314
308
306
307
312
314
315
321
327
326
320
322
322
328
320
292
378
349
329
332
337
342
347
354
366
382
398
408
411
374
331
313
306
304
305
311
309
315
316
313
322
326
324
325
325
329
320
318
348
344
325
325
329
329
337
344
355
373
383
393
387
351
308
288
277
277
279
279
281
285
288
290
285
286
285
285
289
238
411
316
309
295
299
302
308
316
330
347
364
379
388
370
326
296
288
289
290
293
296
301
305
308
314
324
319
318
319
324
326
260
466
360
337
335
340
345
349
361
373
390
406
422
429
405
355
330
322
321
321
322
326
327
330
334
340
348
339
338
339
341
342
276
458
370
346
348
348
351
355
366
381
393
412
426
431
401
352
325
317
313
315
315
315
318
325
334
342
330
328
326
328
330
278
466
364
348
338
340
344
350
362
371
386
401
419
425
405
357
327
313
315
313
314
316
320
321
325
330
338
324
322
324
321
321
259
459
349
328
324
327
329
332
341
352
369
383
397
402
380
331
298
289
290
289
290
292
297
300
299
307
319
310
306
309
313
311
255
440
352
326
317
319
323
329
336
351
363
381
393
405
388
339
309
298
295
297
298
301
302
305
308
314
320
332
321
320
323
327
332
297
411
362
353
335
336
343
348
356
369
382
399
413
424
417
378
337
319
315
316
316
322
322
329
331
336
349
336
334
336
335
336
280
475
371
351
340
342
344
350
358
369
385
403
418
424
404
355
321
313
310
309
312
315
316
316
315
316
317
317
320
326
324
323
322
324
324
267
426
358
327
326
324
329
332
342
353
370
385
402
408
378
331
302
296
294
298
300
305
310
312
315
317
313
314
319
322
321
328
327
331
282
444
362
347
333
337
338
341
350
358
377
391
401
411
405
363
328
312
308
308
312
313
318
318
321
323
323
331
334
332
332
334
336
318
363
365
362
341
343
346
348
357
365
381
397
413
424
421
381
339
320
317
314
315
318
320
323
324
327
328
325
333
338
337
336
336
340
335
307
407
368
341
343
345
347
352
360
371
388
403
416
416
385
338
315
310
308
308
309
312
315
318
318
320
319
318
322
327
325
324
327
329
329
269
440
359
332
334
334
337
341
352
360
376
393
410
413
394
347
317
310
308
307
308
312
312
314
315
318
319
315
318
321
323
323
325
327
329
272
450
357
338
332
337
336
341
347
357
373
388
405
413
402
364
323
312
305
305
309
312
313
318
320
322
321
327
329
329
330
331
332
326
315
371
359
339
339
344
347
350
359
372
386
401
412
415
382
335
310
305
304
302
303
303
305
308
307
307
303
301
304
309
307
309
311
315
265
420
354
332
321
323
325
330
339
348
362
378
394
404
396
356
317
302
301
300
301
303
307
309
310
313
313
314
315
318
326
324
323
325
328
279
426
361
346
334
338
341
345
351
361
375
392
406
420
414
380
339
321
319
314
315
317
319
322
323
325
327
333
335
331
334
335
340
336
308
380
359
342
343
346
352
356
363
375
392
406
418
422
396
347
320
311
309
312
314
317
319
319
320
321
321
323
327
328
328
328
330
331
271
438
358
332
334
334
337
341
349
359
375
391
402
410
391
341
310
301
299
299
301
303
306
307
308
309
308
311
315
317
316
318
321
323
264
449
357
329
324
326
327
334
342
351
365
381
392
402
391
351
317
304
301
303
306
312
313
320
322
321
321
322
328
329
329
327
331
333
277
446
359
342
337
340
345
347
358
366
384
400
411
422
408
368
329
316
312
311
314
315
319
324
324
325
334
333
332
332
330
336
314
347
363
359
335
339
341
341
350
356
375
391
407
416
411
374
334
313
308
311
311
315
315
320
320
322
321
326
331
330
329
331
333
321
329
380
359
334
336
335
339
346
353
364
383
398
404
403
376
326
308
303
301
304
302
305
306
308
306
307
313
312
310
309
313
314
263
422
338
325
314
310
317
314
321
333
344
362
372
381
374
335
297
284
279
278
282
285
291
291
298
303
306
305
308
307
312
294
331
353
342
324
328
329
334
342
351
365
383
401
412
409
371
333
315
312
313
318
321
326
327
330
332
334
335
336
337
338
339
341
276
467
381
345
341
341
344
350
353
368
384
400
411
418
404
359
330
319
319
316
319
318
321
325
327
333
336
334
332
332
335
328
306
364
356
333
338
342
343
350
358
368
385
399
412
412
381
337
316
311
311
312
317
318
318
320
323
322
321
324
325
327
269
455
364
337
326
328
330
334
341
350
366
385
400
406
384
335
304
297
294
293
296
300
301
306
312
321
317
316
316
319
319
259
444
355
328
327
328
331
337
344
356
372
391
408
417
394
347
321
311
309
309
309
309
314
317
320
324
334
324
328
331
332
332
279
434
361
340
339
339
341
346
352
364
377
394
401
411
385
338
309
295
291
291
291
291
292
301
309
302
294
300
298
300
280
325
320
322
303
307
311
315
323
332
346
362
380
388
385
349
308
296
292
292
298
300
305
307
314
320
322
316
316
320
324
326
271
431
357
333
338
340
346
352
360
375
393
410
424
429
401
357
329
325
321
325
326
328
335
340
345
344
340
339
338
339
340
293
420
368
348
350
350
350
356
363
375
391
407
418
426
397
351
323
314
310
311
312
312
322
332
325
319
319
320
321
317
281
371
341
325
325
327
333
340
350
362
378
393
405
405
374
328
306
300
300
301
304
306
309
316
320
322
314
314
314
315
315
262
409
345
319
321
323
330
338
347
360
375
392
403
408
379
335
311
302
302
303
304
306
308
313
318
332
322
320
319
320
322
291
377
338
344
324
328
331
336
344
351
364
379
395
402
398
359
321
303
300
299
303
306
308
315
323
333
318
315
317
319
324
269
453
354
341
334
336
339
345
353
364
379
393
406
413
396
352
318
309
307
307
312
317
323
324
325
327
326
327
334
332
332
330
330
325
298
380
356
336
337
335
341
347
358
370
388
402
416
423
392
350
326
322
316
318
322
325
329
329
329
336
343
335
336
336
336
337
294
404
392
354
342
344
345
349
352
366
376
399
413
422
417
371
335
317
311
312
310
314
316
315
315
315
317
318
319
319
315
316
319
264
432
338
321
316
314
315
318
328
343
349
360
374
381
367
319
284
272
269
272
275
276
277
277
283
288
291
282
284
281
286
281
266
330
319
291
296
299
305
314
325
340
358
377
390
394
361
317
299
297
294
298
304
312
320
336
324
325
327
327
331
280
431
356
348
344
350
356
362
373
388
404
423
434
437
417
375
348
343
343
342
344
355
363
357
349
344
348
350
344
336
369
368
351
353
356
359
367
378
391
404
419
430
426
390
346
323
320
317
318
319
329
338
334
323
323
321
323
321
281
387
339
323
327
330
330
335
345
357
374
392
402
403
372
328
308
303
300
303
305
311
316
322
332
323
320
323
323
325
317
308
362
351
329
332
337
341
348
361
370
382
397
409
403
372
326
308
304
307
306
308
311
317
318
324
331
321
324
321
321
325
266
440
357
334
334
336
338
344
349
363
379
393
401
411
392
348
320
311
308
310
310
311
318
326
339
329
326
328
330
331
296
407
354
355
332
340
344
351
357
368
380
398
411
417
408
365
329
318
314
312
319
320
322
325
325
324
328
329
330
330
332
331
333
273
459
371
342
336
336
337
342
350
360
373
389
400
408
395
352
316
306
305
304
308
309
313
316
320
318
322
328
329
329
331
335
336
278
460
373
345
337
341
341
348
354
364
379
398
410
416
402
358
325
314
313
312
311
316
318
319
323
324
325
326
330
328
329
332
334
293
423
352
350
335
338
340
346
356
366
379
393
405
414
407
369
329
315
311
312
314
316
317
318
321
321
321
327
329
329
328
332
332
318
327
373
360
334
338
341
345
349
357
369
386
401
410
408
373
329
312
305
305
308
313
315
317
318
318
318
314
323
331
329
329
330
336
332
291
390
362
335
339
338
343
345
357
367
384
398
411
412
384
339
316
308
305
308
311
314
315
317
321
320
325
327
328
328
327
333
330
274
430
358
342
341
345
348
356
365
376
387
402
412
417
397
352
320
312
313
313
317
318
317
318
318
317
316
323
327
325
328
328
331
291
396
367
347
328
329
331
333
340
352
364
382
398
403
396
354
313
299
298
298
298
303
304
305
307
309
304
306
311
308
313
311
313
311
254
393
344
310
314
314
315
320
326
339
354
370
387
389
366
320
293
283
282
279
280
284
291
290
296
301
303
302
301
304
308
302
298
335
332
320
325
331
336
345
345
362
377
390
405
400
375
336
313
310
307
311
310
319
321
323
328
330
329
327
331
335
320
341
368
353
336
344
346
350
358
368
379
393
412
420
423
379
342
322
315
319
315
320
320
324
325
328
320
322
329
321
285
444
368
348
333
338
345
349
355
369
382
403
423
434
418
374
336
329
325
325
325
330
331
335
343
341
337
339
339
345
341
303
426
366
351
350
357
355
362
372
380
395
412
427
426
397
344
324
316
315
313
316
310
313
317
316
330
323
335
319
320
332
313
300
364
333
325
332
342
335
340
350
359
376
392
406
409
376
331
305
301
299
300
299
307
307
312
316
316
306
310
305
306
260
442
336
317
310
304
307
318
325
335
348
369
382
383
360
319
282
269
274
265
274
277
279
285
290
300
293
290
295
295
301
278
355
339
331
316
317
321
325
333
343
358
379
400
415
409
371
327
309
308
306
309
316
321
325
345
336
331
335
339
340
322
342
375
362
345
347
349
355
361
371
380
399
417
427
421
379
338
323
316
317
320
322
325
327
331
332
332
331
340
339
338
338
339
344
311
397
384
363
340
343
348
352
360
372
383
399
412
422
420
386
339
318
311
311
312
312
313
317
316
315
313
310
312
316
320
316
315
316
315
249
463
350
326
321
316
321
323
333
342
351
372
384
394
388
347
306
298
293
295
297
301
304
305
304
319
316
314
313
315
321
305
337
353
346
326
329
335
339
347
357
370
390
407
419
415
380
335
314
313
310
315
315
318
323
323
330
333
332
333
333
334
336
269
464
363
342
341
347
347
352
358
373
388
406
417
422
404
354
324
318
315
316
316
318
320
322
323
325
326
331
336
337
331
335
336
337
267
455
368
337
337
337
340
344
351
363
375
390
401
411
393
346
314
304
303
304
305
306
310
311
315
316
317
319
320
319
327
327
328
330
331
286
428
371
350
343
342
342
349
352
363
378
392
405
419
415
382
340
324
316
318
321
319
322
325
327
331
337
342
337
336
337
340
336
311
370
360
341
345
350
353
359
369
377
391
405
412
418
394
347
320
313
311
312
314
315
316
317
318
317
318
323
322
326
325
327
267
459
365
341
333
332
332
337
344
354
369
386
398
407
399
356
317
304
300
301
301
305
307
308
310
310
310
316
318
318
319
320
321
294
354
354
344
323
324
324
329
336
344
356
373
388
397
396
365
323
302
298
299
301
302
307
309
311
314
314
319
324
322
325
327
331
329
286
401
361
335
340
342
345
351
358
371
383
398
408
413
392
349
321
314
316
318
320
322
324
326
328
329
331
336
334
333
335
337
341
280
449
367
343
343
347
349
354
360
370
385
403
414
421
409
366
332
322
321
324
327
326
329
330
332
333
335
340
337
335
340
344
349
289
445
369
348
344
344
346
352
362
371
383
397
406
412
399
363
327
318
313
312
315
315
316
317
314
316
319
321
322
320
324
327
273
451
353
345
326
330
331
337
345
354
369
383
395
407
402
363
321
305
302
303
305
309
312
315
318
317
319
320
321
323
323
324
323
290
385
356
330
334
335
338
344
351
363
378
395
407
408
386
338
315
310
311
311
315
316
319
321
323
323
327
330
330
330
332
334
284
438
366
347
336
338
342
345
353
362
375
388
405
411
405
366
328
315
312
311
314
317
319
324
327
323
333
334
332
333
335
338
340
280
442
366
346
343
349
352
355
363
376
388
402
412
416
402
362
328
317
313
314
314
317
319
320
320
324
324
322
323
330
329
320
325
352
352
330
333
337
336
343
352
363
379
394
403
402
369
326
303
300
303
303
303
307
309
309
312
312
315
319
321
324
321
325
276
423
358
342
328
332
332
337
340
356
369
383
400
410
402
364
326
310
308
305
310
312
317
321
321
324
327
333
330
332
331
337
329
316
370
367
341
345
348
350
357
366
379
394
408
420
419
394
349
323
317
315
318
320
319
323
324
325
327
330
329
331
331
334
280
464
363
349
335
336
340
346
354
362
381
398
407
416
403
365
326
308
305
307
309
311
315
315
317
320
324
323
323
323
324
324
262
444
354
328
329
331
334
339
349
360
373
390
401
410
387
339
310
304
303
311
316
316
318
322
323
318
326
329
331
331
333
335
337
262
470
378
338
339
341
343
350
358
367
385
404
417
425
406
357
321
312
309
309
310
311
319
321
319
322
321
326
324
325
326
331
273
450
372
348
331
335
336
343
352
364
378
397
416
418
406
366
326
311
306
308
309
308
310
314
319
321
320
327
328
327
327
323
328
300
386
352
356
336
340
339
345
348
357
368
384
398
411
412
381
335
313
308
305
307
313
314
312
319
317
324
331
326
330
326
329
308
351
376
356
332
336
344
345
353
360
373
391
408
420
416
382
336
313
306
307
304
307
315
316
318
316
321
320
326
323
324
327
330
267
464
365
344
334
337
341
348
348
359
377
395
411
417
405
360
319
309
303
303
304
306
314
314
317
320
315
322
325
324
323
323
326
308
339
348
354
334
335
336
340
347
359
367
384
397
409
407
377
336
310
304
301
300
304
305
306
305
305
310
312
308
312
312
315
317
255
414
334
321
319
322
327
331
339
350
365
380
388
398
381
337
307
297
296
297
302
303
309
309
310
317
316
317
317
321
325
292
397
352
349
328
332
338
342
349
359
375
390
404
416
410
368
324
311
307
310
313
316
321
322
321
320
320
322
322
333
336
333
334
336
336
313
361
378
362
337
340
343
348
354
363
373
387
404
413
414
383
338
318
311
310
313
314
314
317
320
324
324
326
327
330
337
338
337
340
340
303
402
363
359
340
343
345
351
360
370
381
397
411
418
417
386
342
324
317
314
316
317
320
323
323
323
324
330
332
331
330
333
336
335
291
396
357
338
338
339
343
349
355
365
382
398
410
417
394
346
317
308
307
309
310
315
318
320
318
318
320
324
327
326
328
329
331
327
287
409
364
335
337
336
338
345
354
365
380
395
406
411
390
347
316
309
309
308
312
316
320
321
321
323
325
324
328
327
329
334
335
339
274
462
371
343
340
342
345
348
357
368
382
400
414
422
411
367
333
318
314
311
316
317
321
323
325
328
327
334
340
335
336
335
336
325
340
353
362
340
346
348
350
354
365
376
390
405
413
416
386
344
318
311
312
311
312
316
316
318
319
320
321
326
323
324
323
326
327
263
439
355
329
329
332
336
340
348
361
372
386
399
403
387
342
310
301
301
302
304
307
311
314
315
318
321
322
325
326
328
327
328
334
275
455
370
346
341
344
347
352
358
369
380
397
413
418
412
374
333
319
317
319
320
320
324
327
330
332
329
333
338
334
335
333
337
333
307
367
360
339
340
343
347
355
361
372
386
401
407
412
390
344
316
308
308
309
306
310
312
314
311
313
317
321
319
320
322
324
322
294
383
356
327
333
332
336
340
352
362
380
395
406
408
384
338
313
307
303
305
308
311
317
319
317
317
315
318
322
318
318
320
323
316
297
378
356
326
326
327
329
336
344
354
372
385
397
400
374
329
308
303
300
303
307
309
315
317
319
319
318
325
327
328
329
328
335
328
327
358
367
342
342
345
350
357
366
378
391
409
415
421
402
357
329
323
321
323
324
327
326
328
328
327
333
335
333
333
335
335
327
318
372
366
341
341
340
342
349
357
371
386
400
409
411
385
338
315
309
309
311
312
316
320
322
324
325
321
325
333
331
331
334
338
331
308
394
368
343
343
346
346
353
356
373
385
401
414
417
394
349
324
314
312
313
314
317
323
324
327
326
331
333
334
334
335
336
338
283
467
365
347
338
340
343
346
356
364
377
391
400
409
400
361
321
303
298
300
299
301
305
305
306
307
307
311
313
311
310
311
314
301
305
357
341
314
318
319
325
330
338
350
365
381
391
395
366
322
300
294
295
299
302
309
309
312
315
318
319
325
331
331
332
332
337
332
297
399
365
337
342
343
348
352
359
373
386
398
409
416
395
350
323
314
311
314
317
318
322
323
325
326
330
336
336
336
338
341
336
298
386
360
343
348
351
356
359
369
379
394
409
418
424
401
354
326
319
317
316
321
320
319
322
325
323
332
332
335
330
331
333
335
276
432
362
335
337
338
340
346
353
362
377
390
403
406
390
345
313
303
300
303
305
310
312
315
316
317
316
319
324
325
324
326
326
329
266
456
363
333
329
329
332
333
340
350
364
376
391
396
388
347
308
293
292
293
293
295
298
298
300
302
304
306
307
304
305
312
315
271
415
336
335
315
318
322
330
336
348
359
377
389
401
395
362
322
304
300
301
304
305
311
315
315
315
319
325
328
325
329
329
332
307
360
363
359
339
340
343
346
354
365
375
390
407
416
418
390
343
319
316
316
318
321
325
330
333
335
334
339
342
341
341
341
344
345
282
464
371
346
346
345
348
351
360
370
381
397
408
413
396
353
315
305
303
304
306
309
309
312
315
314
311
314
319
315
317
317
321
318
266
390
340
319
320
324
330
336
343
355
368
384
394
405
389
344
311
300
300
301
305
307
310
312
316
316
318
320
322
320
322
323
327
271
456
365
340
330
332
336
339
346
355
369
384
400
411
402
362
324
310
305
305
308
311
315
318
323
326
325
327
324
330
333
329
331
333
338
310
370
367
362
338
336
338
342
345
356
366
382
398
412
413
386
342
313
307
305
305
307
307
310
314
317
317
322
325
325
325
330
332
335
272
442
355
336
333
334
337
342
351
362
377
391
404
409
396
355
318
304
303
304
307
312
311
318
321
321
323
320
323
327
323
326
328
331
316
338
377
360
336
340
339
341
344
356
368
384
400
412
415
389
345
321
315
314
318
318
319
322
326
327
328
331
332
335
342
342
341
345
346
347
291
428
371
345
350
348
351
357
363
375
389
405
418
423
408
368
333
323
317
316
317
318
322
321
324
324
324
332
337
332
332
334
336
325
329
354
361
338
343
344
346
352
359
370
385
396
407
412
389
344
316
310
307
309
311
314
314
316
317
317
322
324
324
326
327
326
330
274
423
358
335
335
338
341
347
354
365
381
395
407
411
392
348
315
305
303
305
307
310
315
316
317
318
319
321
327
321
320
319
321
318
290
377
349
322
327
328
332
334
343
352
368
382
394
400
379
333
307
298
297
299
302
305
307
313
312
315
317
317
322
323
323
326
327
332
273
455
366
340
337
338
341
345
353
363
376
392
407
415
407
369
328
314
312
314
314
314
319
319
323
323
323
321
326
332
333
335
336
336
334
298
384
362
335
340
344
347
352
358
372
382
398
410
418
402
361
327
321
316
320
321
322
326
327
333
328
336
337
336
335
336
337
339
290
417
361
344
343
347
351
355
361
372
384
399
409
418
401
355
324
313
309
311
311
313
316
318
319
319
319
321
322
320
322
325
327
263
461
366
338
331
333
333
341
347
356
371
385
401
408
398
354
316
306
303
305
305
310
314
317
320
322
323
324
326
327
326
328
329
332
287
423
369
347
332
336
339
342
349
358
370
387
402
411
408
370
327
309
307
306
310
313
318
318
321
322
325
326
324
325
329
330
330
332
335
302
390
357
359
339
340
342
347
351
363
374
389
405
412
415
384
342
317
307
310
314
315
319
322
324
326
326
329
335
331
331
334
337
338
292
405
363
345
348
