6
368
369
369
372
378
391
400
403
394
361
333
326
322
323
325
325
325
324
325
326
325
326
322
323
275
413
371
331
321
321
320
320
323
330
339
354
363
367
352
316
296
292
292
292
294
296
299
298
299
299
300
300
301
303
304
268
357
344
315
292
294
298
295
297
300
310
325
335
342
333
304
277
268
267
270
272
276
280
284
284
286
296
299
308
311
312
259
377
357
322
328
333
338
342
348
360
374
386
397
399
378
344
327
324
325
325
331
331
332
333
332
334
339
340
340
341
341
283
425
375
337
334
336
338
337
339
346
358
369
380
381
357
322
302
299
299
303
305
307
305
306
309
309
312
315
314
317
318
319
260
393
353
315
317
318
320
322
325
332
345
356
366
368
348
311
292
288
286
287
291
292
291
291
289
288
292
291
287
288
292
242
376
334
296
283
287
288
290
290
301
315
330
342
344
333
304
279
273
273
277
280
285
289
295
300
308
313
320
322
317
330
352
367
334
340
347
350
353
361
372
388
400
407
403
374
343
330
330
330
329
333
339
342
335
341
339
342
344
336
336
338
381
364
333
338
344
336
342
342
353
369
377
382
377
349
312
301
298
302
307
310
317
320
325
330
329
324
327
329
285
406
396
341
324
326
329
334
337
343
357
370
380
388
367
316
311
297
292
294
298
299
306
305
308
320
322
325
328
328
284
377
369
327
324
332
327
326
332
339
355
366
378
371
343
308
291
292
294
289
297
298
302
302
297
302
304
309
252
404
359
314
307
312
311
315
322
327
341
359
367
370
351
317
296
286
284
291
289
288
292
292
296
296
299
300
303
247
400
361
312
301
306
306
306
312
318
330
348
361
368
354
319
294
294
296
301
307
311
314
320
328
335
337
343
348
347
294
440
396
350
354
355
360
356
362
369
385
392
403
404
379
338
321
311
302
308
306
302
302
308
310
311
307
319
314
301
350
346
356
330
336
344
350
353
362
372
389
398
404
394
357
330
321
318
321
323
325
322
319
319
326
324
327
326
327
329
277
423
381
331
320
320
324
325
327
334
349
357
377
378
364
326
307
298
296
295
300
300
303
302
302
300
304
302
297
295
294
295
268
326
348
311
293
291
299
302
305
310
328
341
362
368
362
330
301
292
296
302
302
306
308
307
310
307
316
320
318
320
317
313
283
342
344
305
305
306
306
301
303
314
325
337
342
343
319
288
276
280
281
287
296
307
307
314
320
326
326
326
327
332
286
399
396
339
328
333
339
341
349
355
370
388
407
414
404
366
345
341
344
341
347
353
353
354
355
360
364
366
360
362
358
316
405
398
357
362
358
354
361
360
370
386
395
401
405
374
339
326
323
318
321
327
328
325
331
331
333
336
337
335
333
338
277
417
382
335
335
337
341
339
342
348
365
368
379
379
351
312
286
276
268
267
270
269
270
270
265
268
278
275
281
277
277
238
305
319
281
282
287
292
293
305
318
331
345
351
357
340
302
291
288
296
305
313
321
327
335
343
344
350
355
356
305
429
400
361
364
368
370
371
376
385
399
412
418
416
383
346
330
327
326
328
327
329
330
333
334
329
329
329
323
278
366
355
311
313
311
308
307
310
319
329
341
347
340
312
277
263
257
260
263
266
268
275
269
285
282
267
280
278
247
299
319
288
293
297
301
303
327
345
346
366
382
383
366
332
326
326
332
334
339
341
347
348
349
356
362
355
330
424
398
364
364
365
368
369
374
382
395
411
419
415
376
343
332
328
326
327
327
332
334
334
332
334
335
333
280
385
369
326
327
328
329
330
334
342
356
369
375
371
338
301
286
282
282
284
284
287
285
285
289
294
294
295
296
298
233
376
344
303
302
304
307
309
313
322
336
350
358
362
344
310
290
287
286
290
291
296
304
306
308
305
312
313
259
409
355
327
321
321
321
329
332
343
354
366
374
378
358
326
306
303
300
305
308
311
313
316
313
313
319
321
321
286
360
358
330
333
337
342
347
355
365
381
396
402
401
375
338
324
322
323
327
327
334
337
337
336
338
340
333
297
402
368
331
331
331
334
334
336
347
362
373
381
375
339
304
293
290
291
292
292
296
295
299
303
306
309
310
306
256
366
349
309
309
313
318
319
323
332
344
356
364
362
330
293
279
277
275
278
279
280
280
281
284
290
293
294
295
298
241
395
356
306
303
307
312
315
320
330
343
359
371
378
367
329
304
298
299
300
305
307
311
313
315
325
326
328
329
337
278
421
380
339
338
341
343
346
354
361
372
385
394
397
379
343
321
313
313
313
318
321
319
326
327
331
330
330
334
298
404
365
355
330
333
337
341
347
356
368
384
395
401
393
359
332
323
320
324
326
329
336
334
341
337
345
342
343
348
292
435
412
356
341
344
345
345
346
350
361
372
384
391
374
331
303
297
295
296
293
296
294
297
297
299
306
307
308
310
307
253
374
349
307
307
310
308
314
317
326
340
353
360
356
327
290
274
270
269
270
273
277
278
279
283
286
292
294
297
299
292
290
337
338
303
309
310
317
320
330
341
360
375
380
378
345
313
301
298
297
299
302
304
307
305
310
311
315
316
316
317
320
253
400
366
317
307
309
313
316
316
327
345
357
363
370
351
308
287
288
288
295
300
305
308
311
315
319
324
330
328
333
337
282
431
388
342
338
346
349
350
355
358
376
387
395
400
376
336
315
308
306
304
307
309
310
314
314
317
315
321
321
321
322
315
310
352
356
323
326
329
331
334
341
354
367
384
392
390
356
323
314
309
311
314
320
324
324
325
324
326
330
337
330
330
332
334
271
422
383
328
329
330
335
336
339
347
360
373
386
387
362
324
302
300
302
300
303
304
307
311
310
313
314
317
319
322
324
315
309
370
356
325
325
329
331
333
339
349
364
378
383
381
344
312
298
294
291
295
299
299
300
301
301
304
306
304
307
309
272
367
357
323
308
309
311
315
316
324
332
346
358
366
351
315
285
279
279
279
281
283
287
291
290
291
296
299
303
304
308
311
286
335
347
331
309
311
314
315
322
327
342
356
369
378
373
343
313
301
300
303
302
309
315
317
320
326
330
331
335
339
345
294
451
395
359
353
356
362
365
373
381
393
408
416
423
402
364
338
327
321
322
320
320
319
325
324
330
332
344
343
348
348
345
300
406
379
337
337
337
339
341
344
352
364
379
387
391
354
315
297
287
285
286
287
291
291
294
294
301
299
302
301
302
243
404
362
311
305
306
310
311
315
325
337
354
367
376
353
314
289
281
282
283
291
293
296
301
300
302
307
309
312
313
316
322
259
435
386
333
327
330
332
338
345
354
371
385
399
407
397
358
326
317
317
318
322
323
324
325
330
329
333
331
335
346
344
345
347
350
265
465
403
338
341
341
343
344
348
352
364
378
389
393
373
330
303
295
290
293
292
292
294
293
294
295
297
298
299
299
296
297
305
302
307
305
293
230
385
343
290
298
301
305
310
319
329
342
360
372
380
365
329
303
298
300
306
309
313
318
323
326
328
329
333
331
331
334
336
336
337
340
270
446
420
342
336
337
350
342
340
329
341
357
375
384
373
332
303
297
296
301
302
303
307
311
315
313
311
311
304
299
299
301
307
305
309
313
272
389
390
344
326
330
335
337
339
344
355
369
381
391
391
363
327
311
307
307
307
309
313
315
317
318
322
325
322
321
321
324
324
324
323
325
328
254
438
386
325
321
323
326
330
331
337
349
362
375
382
376
339
306
294
296
296
299
304
307
311
313
315
316
317
320
320
321
320
323
328
330
331
334
334
285
411
403
344
331
335
333
335
338
344
351
367
374
385
388
358
324
301
297
295
295
300
303
302
304
305
309
308
308
316
320
320
322
325
328
254
431
380
329
333
332
338
339
342
350
359
373
386
392
387
344
311
300
296
295
300
304
304
306
307
310
313
316
316
322
326
325
327
330
325
282
424
371
335
336
340
342
345
348
356
370
387
398
403
387
345
322
315
313
314
315
318
318
321
323
324
324
326
328
328
331
331
332
280
387
375
330
334
333
334
336
337
348
360
370
381
385
365
327
303
296
288
291
293
295
298
300
299
298
301
305
306
308
309
312
303
305
324
346
308
314
316
320
327
333
347
363
377
389
395
377
339
318
314
313
315
317
320
321
321
322
327
329
330
332
334
294
395
400
351
331
333
336
335
338
342
352
368
380
385
381
346
309
297
295
292
292
294
293
294
296
295
293
293
298
298
297
300
298
251
371
341
297
300
305
309
311
314
323
338
357
368
375
351
313
286
281
280
279
282
283
284
286
288
289
290
293
293
292
294
295
281
306
328
329
295
300
303
305
311
315
328
341
358
367
375
354
318
301
297
304
306
314
316
319
324
326
332
334
341
343
342
347
285
451
429
362
351
351
353
353
360
366
379
395
408
417
413
376
339
326
324
324
327
332
332
333
336
335
339
343
339
343
343
341
289
415
413
352
329
326
327
324
327
332
345
355
368
377
374
339
305
290
286
289
289
288
289
295
299
299
306
310
314
318
321
327
283
405
383
347
320
324
323
328
332
340
352
370
380
388
390
356
317
301
299
300
302
304
304
307
308
308
311
317
319
322
324
323
248
426
373
320
321
324
328
331
336
344
361
376
389
395
375
330
306
302
300
302
305
308
312
312
316
319
318
323
329
327
327
330
333
255
446
405
331
328
330
332
334
337
343
355
371
386
393
384
346
311
301
298
300
302
300
304
306
305
307
311
310
312
315
318
319
322
321
308
301
368
352
314
320
319
322
324
329
340
357
373
380
385
367
328
302
295
296
298
302
303
306
309
313
315
325
327
329
331
334
335
260
445
398
339
334
340
346
347
352
359
369
385
395
402
392
355
321
311
309
308
310
311
313
315
316
315
316
316
321
324
321
323
325
324
252
418
372
321
324
327
329
330
334
343
354
372
385
391
379
336
308
303
299
296
297
306
305
301
306
309
307
310
311
314
311
313
314
288
338
360
333
303
305
305
305
307
307
325
333
348
357
361
340
291
280
270
273
266
272
277
272
278
286
297
299
299
304
314
324
327
240
379
340
293
304
307
303
302
295
320
345
346
367
383
362
341
311
302
308
307
309
310
320
325
316
327
332
337
336
343
347
286
458
407
355
347
351
352
351
356
366
378
393
408
411
403
370
337
323
324
321
321
319
326
327
326
327
328
334
333
339
339
339
342
283
414
384
346
350
352
357
358
365
369
380
391
399
405
388
349
320
312
309
309
313
315
315
312
311
309
306
305
304
300
301
302
302
303
299
298
230
402
345
288
287
288
285
290
291
296
308
327
335
342
342
313
279
260
262
262
266
269
275
278
283
286
290
297
305
309
314
319
321
271
388
363
328
330
337
343
347
351
359
372
388
399
405
393
356
330
324
322
323
325
327
330
331
332
335
337
337
342
347
347
350
352
341
332
403
379
347
349
351
353
355
359
368
379
393
403
405
388
349
324
319
316
315
317
319
320
320
317
318
320
318
323
325
325
325
325
329
286
397
382
340
325
326
328
332
333
336
345
354
368
379
381
360
321
303
298
297
296
293
298
296
302
303
303
304
305
310
313
314
315
315
317
266
368
349
316
315
317
323
326
332
341
353
367
375
387
384
352
321
312
311
314
312
318
320
324
323
320
323
326
330
332
330
330
275
403
368
329
324
325
316
317
314
319
335
353
368
379
371
336
309
303
298
299
301
302
303
310
310
313
314
314
309
310
312
307
308
309
304
267
362
342
302
303
304
305
304
305
310
320
334
343
350
342
309
280
270
270
270
273
276
276
282
284
290
293
293
297
298
306
309
311
316
320
294
354
363
349
329
332
338
341
344
350
359
373
387
399
404
392
359
332
325
326
328
330
330
334
334
336
339
344
350
353
353
355
357
351
324
388
391
353
356
358
360
363
367
374
385
398
407
412
398
361
332
321
320
321
320
321
322
323
322
325
325
325
325
324
326
325
325
325
326
261
429
375
320
312
315
318
318
319
319
329
343
351
358
360
336
298
282
275
273
275
271
275
277
276
280
279
283
282
283
287
287
291
292
269
341
331
332
305
311
318
327
333
338
350
363
375
386
395
378
337
311
306
306
305
308
311
313
316
316
318
322
326
327
328
334
300
386
423
358
346
349
349
352
352
356
363
375
385
394
393
363
323
301
306
378
334
291
340
277
304
298
306
313
315
315
316
318
319
258
393
369
322
325
324
327
339
336
347
420
320
356
380
378
348
317
315
303
313
318
318
322
323
329
328
337
343
347
345
344
350
282
450
401
358
351
348
353
355
357
363
373
389
397
403
403
377
340
327
323
325
327
330
336
337
339
341
343
343
342
343
345
302
400
395
356
333
334
332
333
333
336
343
354
366
375
375
352
311
291
287
284
288
288
290
290
290
291
289
288
290
291
291
289
291
247
359
342
303
286
285
289
291
291
294
304
319
329
337
342
320
283
263
256
259
264
264
270
273
277
282
286
291
298
302
306
312
309
296
357
363
332
338
342
345
349
356
365
375
392
404
412
400
361
337
329
329
331
332
336
337
337
341
339
346
346
349
346
349
351
286
456
412
352
343
346
348
347
348
352
361
374
385
391
389
358
322
306
301
298
301
302
304
305
306
307
308
313
313
312
315
317
313
275
369
357
317
320
324
329
330
335
344
358
371
378
388
378
343
315
308
302
304
308
308
311
318
315
313
320
325
325
326
326
331
267
412
373
334
332
334
335
337
344
350
361
374
386
395
392
361
326
313
314
316
318
320
323
321
319
317
323
327
329
331
329
329
259
420
376
322
324
324
324
326
328
334
347
361
370
376
367
328
298
289
286
287
290
295
300
301
303
304
304
301
304
309
312
313
314
315
255
416
385
324
315
317
320
323
324
327
338
351
370
378
378
360
319
300
297
298
300
300
307
306
309
308
309
313
319
317
314
318
319
254
384
360
316
315
318
317
322
326
329
340
357
368
372
366
332
303
291
287
287
292
294
296
298
298
298
302
309
312
313
313
318
262
426
368
336
323
327
330
334
340
345
357
373
386
395
397
371
334
318
315
315
317
321
323
322
322
326
327
327
330
331
331
281
406
390
339
326
326
329
329
331
333
339
352
364
374
373
344
306
290
287
285
289
289
292
292
294
296
303
304
306
307
308
291
319
343
343
316
318
319
321
325
332
341
353
365
377
381
368
327
305
296
299
301
308
303
301
305
308
307
302
304
307
310
256
398
357
316
312
317
321
325
336
348
360
371
387
392
384
352
312
327
318
315
315
321
311
325
325
321
321
319
329
270
430
380
336
326
330
327
334
334
350
364
374
391
398
390
356
324
314
309
306
309
309
311
316
314
316
312
320
316
263
401
365
319
307
301
307
313
314
325
342
368
391
343
348
331
283
251
276
255
271
287
283
297
312
301
305
298
312
318
249
405
373
317
312
319
327
322
329
349
351
371
386
402
381
363
319
318
336
324
318
323
334
332
325
330
329
330
337
289
395
383
344
337
340
342
344
346
355
368
378
391
395
372
333
313
307
305
307
300
306
301
302
309
301
307
311
304
307
310
311
238
404
358
305
302
309
316
316
307
319
330
343
356
359
357
321
287
279
276
279
283
284
288
291
289
292
295
302
300
301
300
301
253
339
333
301
304
304
309
313
318
330
341
356
365
373
364
335
309
305
309
310
314
321
323
332
337
337
341
349
351
310
414
406
372
352
356
359
362
366
370
381
398
412
417
417
383
343
328
327
327
329
332
336
338
338
341
344
342
343
346
343
292
405
371
335
338
342
343
344
346
352
362
376
390
396
376
335
310
305
304
303
305
306
307
306
307
307
312
316
317
318
316
319
253
409
365
317
315
315
316
316
317
328
340
352
362
369
363
331
296
284
284
282
285
287
286
286
285
285
283
291
291
292
290
289
293
236
396
336
304
293
295
299
301
308
311
326
339
352
359
361
335
301
281
283
283
291
297
296
300
298
298
305
307
308
310
316
251
425
361
319
320
322
322
325
331
332
340
357
368
377
376
338
306
296
290
289
295
294
298
298
309
311
313
316
322
323
326
331
308
356
383
360
344
343
353
367
371
373
378
392
403
410
418
396
358
337
332
329
325
327
324
322
321
321
320
319
319
317
315
280
342
353
318
319
320
321
322
328
335
347
360
368
380
358
324
296
290
288
293
299
304
308
307
312
315
319
320
322
327
277
422
356
335
319
324
327
334
339
346
356
367
380
388
391
364
331
315
317
318
321
320
321
323
324
327
325
326
328
305
335
367
347
323
326
333
337
340
342
352
366
379
388
390
364
327
309
305
307
308
312
313
317
322
324
323
325
327
328
269
421
372
334
331
335
331
336
336
345
356
372
381
388
384
348
322
309
305
306
311
310
309
312
314
315
315
313
314
314
263
417
359
309
323
309
320
315
328
322
337
349
364
375
375
350
324
321
316
309
320
327
331
334
332
334
332
337
344
296
396
370
340
336
333
335
329
330
336
344
353
359
368
348
317
294
288
284
292
292
292
302
300
295
298
299
293
270
336
329
303
306
307
318
313
321
327
337
358
364
366
347
309
293
288
292
291
294
297
300
305
301
305
311
310
313
314
316
273
391
369
327
318
319
319
324
322
325
337
347
361
369
368
343
307
287
286
283
284
287
290
289
288
293
294
296
298
300
308
249
396
351
328
296
301
303
312
315
324
337
350
367
374
373
348
314
302
305
309
323
323
328
333
337
335
334
338
348
340
296
421
373
344
335
338
346
364
357
340
365
376
389
402
399
332
309
314
325
319
325
320
329
330
329
337
338
336
321
288
386
351
322
307
327
298
310
319
331
338
348
368
357
330
298
274
277
287
273
291
293
300
310
315
298
314
282
430
363
322
320
330
326
337
349
355
368
381
386
393
410
359
324
320
328
321
322
330
333
326
332
334
345
336
314
311
423
354
324
327
326
331
328
334
335
353
357
373
373
341
298
282
286
281
276
280
285
290
290
289
285
286
297
267
319
358
313
297
295
303
307
310
319
325
336
351
356
357
336
301
285
276
280
279
277
298
298
303
300
306
317
313
272
363
354
325
327
335
337
342
349
359
373
382
391
396
381
342
317
311
312
314
318
322
329
329
327
332
336
338
290
427
394
350
336
341
340
346
347
355
365
378
391
397
391
357
326
315
311
315
317
322
327
329
328
325
326
327
310
329
391
347
320
324
326
327
331
335
340
354
366
376
376
342
301
287
286
286
289
294
301
304
301
302
305
308
292
295
390
332
309
312
317
321
325
330
342
355
373
382
383
354
319
299
297
300
303
312
315
318
319
317
322
320
258
412
358
326
323
330
336
343
338
349
365
376
383
390
372
333
310
303
308
312
314
322
328
325
325
327
327
309
342
357
352
327
330
330
334
337
341
352
364
377
383
380
352
316
303
304
304
306
309
313
315
319
321
320
322
321
264
405
360
322
324
325
327
334
332
328
342
360
365
368
360
310
288
287
289
299
301
290
297
302
331
301
309
317
319
271
400
361
321
330
332
330
328
338
346
365
363
379
380
380
326
305
310
300
306
317
312
311
314
319
318
324
323
330
271
425
369
330
328
337
323
332
338
349
355
367
373
383
372
339
308
299
304
321
317
321
301
311
317
325
310
320
322
327
268
385
353
327
323
329
328
329
333
354
354
360
377
382
357
320
303
295
297
303
294
304
306
308
324
298
299
327
328
320
270
368
379
337
331
331
317
319
325
333
340
344
378
401
358
356
319
286
305
291
297
299
305
296
316
319
295
323
303
316
316
302
263
418
363
347
313
322
322
319
331
335
345
357
362
383
357
326
347
290
299
297
294
307
290
312
301
306
300
317
311
304
314
311
247
396
365
303
310
308
308
310
315
315
338
345
356
361
347
316
279
275
277
275
290
288
290
300
302
300
307
307
307
317
320
319
327
310
318
379
357
323
324
337
329
334
341
349
371
385
383
396
378
333
317
310
311
322
321
318
329
330
329
328
331
330
335
337
345
340
340
352
332
336
387
369
343
343
344
348
342
352
358
369
379
395
393
376
333
309
298
304
295
298
300
299
294
302
296
298
300
298
296
291
301
295
300
301
273
334
343
318
298
294
296
295
302
306
321
335
340
343
334
342
301
281
284
272
283
279
289
286
294
289
294
295
299
293
300
306
307
303
260
355
345
316
326
323
329
339
342
358
364
386
387
390
389
351
326
318
323
333
328
334
333
348
337
341
341
349
338
346
344
289
443
388
354
339
347
347
352
351
367
386
406
407
401
393
361
334
313
306
314
329
332
342
337
322
333
341
332
311
346
330
332
324
290
415
375
312
323
354
346
331
348
327
363
391
381
397
400
366
313
310
323
282
324
304
299
313
314
314
316
318
307
314
321
310
340
318
292
354
366
339
333
320
328
320
341
302
305
346
392
363
373
336
324
300
297
278
284
300
301
351
271
279
286
334
292
329
305
344
322
281
325
424
356
316
341
327
338
372
305
337
343
352
411
370
337
300
294
274
286
297
334
292
285
282
287
330
274
300
308
320
300
313
312
250
357
390
288
316
286
311
316
301
369
352
359
371
365
367
328
286
263
302
262
268
314
284
257
293
285
278
282
281
287
299
305
201
366
320
290
287
285
288
302
295
303
320
328
360
370
355
310
285
290
291
290
299
301
318
321
315
323
330
329
333
350
342
350
354
358
293
437
402
362
374
372
375
390
386
390
411
425
428
441
423
401
360
353
356
347
363
355
363
361
357
363
355
355
359
363
360
363
336
367
387
379
349
346
352
354
346
355
365
371
379
391
391
366
333
309
305
303
302
294
306
302
304
312
309
303
306
303
303
303
244
367
333
290
298
297
299
306
305
313
327
337
349
353
340
301
278
267
269
274
279
282
284
292
295
290
299
299
301
310
309
311
319
289
331
382
342
317
317
328
323
325
336
345
355
362
375
383
359
314
297
294
297
304
301
309
315
312
312
310
311
314
316
326
318
324
322
325
269
415
357
332
324
331
325
325
329
343
346
354
368
372
376
336
313
295
288
291
289
297
300
305
307
307
315
315
323
328
321
285
386
369
325
334
339
351
339
358
366
374
388
394
406
378
345
323
312
316
320
323
324
328
335
331
335
332
335
335
339
303
384
399
349
335
332
337
330
337
345
362
361
379
386
383
359
314
296
297
297
297
300
300
305
300
309
306
308
311
323
321
310
316
306
296
379
347
318
319
322
322
324
329
339
352
366
373
379
364
333
299
297
296
301
305
302
307
307
314
313
316
315
316
314
320
328
327
331
325
324
276
408
358
326
329
331
323
331
340
339
352
367
378
379
377
342
316
308
306
304
305
311
312
312
320
312
318
318
321
325
324
329
322
329
262
395
365
328
325
325
326
333
335
335
351
369
373
371
380
345
306
304
299
302
305
310
307
316
315
320
317
323
327
329
329
328
334
299
389
384
353
334
335
335
337
346
348
351
368
381
387
391
373
332
310
311
304
310
318
305
316
320
323
323
320
321
328
328
327
327
330
330
266
430
387
336
335
333
335
332
338
351
350
367
380
380
379
353
321
314
295
302
301
314
308
314
317
324
312
323
316
320
317
324
328
329
328
328
325
266
412
370
319
324
326
331
332
340
340
350
363
375
376
373
341
311
297
294
297
307
301
305
315
303
306
315
311
313
319
319
326
321
330
274
416
389
340
329
331
335
337
343
346
357
362
380
387
390
363
326
304
298
294
299
304
303
300
304
302
301
297
296
298
299
294
295
295
289
224
381
340
291
275
281
278
281
282
292
291
310
319
324
325
295
265
249
248
248
258
263
269
267
277
277
281
283
288
302
291
302
305
316
310
321
301
310
368
346
325
323
326
334
337
341
356
370
374
389
399
384
352
329
321
320
321
325
329
335
332
342
348
343
348
352
349
356
358
358
298
455
411
364
364
360
365
368
369
380
383
399
408
416
409
385
344
330
328
333
329
332
332
331
335
334
334
334
332
336
335
329
334
336
337
332
338
308
358
400
347
327
330
330
333
333
334
342
352
366
374
377
368
334
307
299
294
300
300
302
300
303
304
306
305
311
311
307
309
315
318
322
313
322
256
395
359
316
318
321
324
328
329
336
346
361
367
373
368
345
313
295
302
302
298
301
307
313
310
313
309
323
324
325
326
327
332
279
428
385
340
333
339
340
338
340
354
361
369
383
392
394
359
326
312
309
309
307
315
316
316
319
322
323
327
326
330
330
328
330
329
326
301
396
359
333
332
333
332
337
341
345
356
361
381
384
370
342
311
304
300
306
305
310
310
315
315
319
318
316
318
321
321
321
324
319
330
312
335
385
351
327
327
327
326
337
337
345
353
370
375
383
368
333
304
304
299
302
303
304
303
309
311
311
314
318
313
321
319
324
320
324
325
266
411
360
325
322
324
328
326
332
335
357
361
370
374
378
359
323
299
304
305
306
309
316
314
320
322
328
329
333
335
335
340
343
280
438
396
339
335
337
334
333
341
345
350
368
380
381
382
361
320
302
298
299
311
304
303
308
312
313
317
311
316
321
317
312
327
308
314
379
345
330
329
332
337
335
332
347
359
370
383
383
371
334
314
304
297
303
303
301
302
314
311
311
316
311
318
311
305
314
285
350
340
332
315
311
316
317
314
323
326
336
342
351
367
341
313
284
274
278
277
282
292
291
295
299
307
301
314
306
311
285
337
352
341
320
320
315
317
323
328
343
350
369
381
387
368
329
308
310
307
311
311
313
311
326
322
323
327
332
331
330
335
322
333
385
358
334
327
336
337
335
338
349
365
370
381
385
363
328
306
298
295
290
294
289
294
291
289
294
288
287
289
290
274
265
311
308
278
276
281
279
279
290
292
303
319
327
330
322
283
257
255
257
258
263
267
279
272
286
289
285
300
302
312
267
410
367
339
326
331
335
341
349
353
369
385
395
406
410
387
348
336
331
338
341
343
342
346
347
342
350
351
354
355
357
350
322
426
392
359
360
356
364
361
365
378
386
394
406
412
400
355
335
332
324
323
325
322
330
330
329
331
324
331
335
335
334
339
332
282
394
365
329
331
333
335
335
339
345
349
363
374
380
377
339
307
306
302
301
303
306
310
308
312
306
307
312
318
315
318
320
296
350
361
340
316
323
323
320
324
334
337
353
364
366
376
363
326
301
297
298
297
295
302
300
300
304
305
312
314
309
321
316
303
343
348
345
323
320
327
331
332
334
345
362
370
378
379
375
333
310
304
302
302
311
310
313
315
323
321
320
322
322
326
270
400
365
330
331
332
338
335
343
349
362
375
377
393
380
340
312
309
308
307
313
307
314
319
320
315
327
325
319
326
326
300
363
386
347
329
335
330
335
343
342
350
360
376
384
386
374
328
310
307
301
307
305
308
311
310
315
310
318
319
316
314
319
290
352
348
320
326
319
331
324
330
340
347
364
367
375
367
334
309
299
298
298
302
308
312
315
317
319
314
322
319
327
263
414
369
330
327
326
335
336
334
342
351
365
379
386
374
346
310
307
303
311
308
307
315
314
313
312
318
316
317
326
323
322
328
327
261
422
375
328
331
326
331
329
340
344
351
367
372
385
382
348
322
310
307
309
305
312
311
313
315
318
317
310
318
319
324
329
329
330
267
405
365
325
323
330
333
337
335
346
351
368
371
373
374
351
317
305
310
300
302
312
310
319
318
321
310
323
312
321
322
326
315
327
268
407
369
323
316
322
327
331
334
352
352
359
369
378
378
360
316
303
301
313
297
316
306
304
315
306
323
327
321
327
326
332
267
444
377
333
332
335
326
342
343
343
358
371
384
387
378
356
312
310
308
299
307
303
311
313
311
313
311
320
312
324
313
324
329
298
352
385
342
330
328
330
328
340
331
349
354
368
370
378
367
332
306
306
311
301
304
306
311
317
316
319
319
319
315
326
321
321
327
314
320
362
348
321
324
329
327
329
341
340
359
365
373
380
369
337
307
301
302
299
305
304
309
310
312
316
318
324
324
326
330
296
388
371
355
331
334
332
335
338
344
349
361
370
379
380
360
322
301
300
296
297
297
298
300
303
304
305
305
307
309
309
261
378
347
313
313
315
317
322
325
333
343
356
368
375
364
327
301
294
293
295
298
299
305
304
305
307
310
309
314
316
316
318
321
316
293
371
355
324
327
326
329
330
336
342
353
365
374
382
373
336
308
301
300
302
303
308
311
309
314
317
318
321
322
324
328
325
292
367
360
328
331
331
336
337
343
351
361
375
385
390
382
348
319
310
309
311
312
316
317
317
319
319
325
325
327
328
325
290
387
376
333
319
342
354
312
323
345
356
373
383
385
360
337
332
301
293
308
309
307
309
322
314
314
321
318
325
323
333
276
417
378
340
333
328
330
341
332
343
352
365
378
385
384
355
321
307
303
304
304
304
309
309
310
314
319
319
319
321
324
287
384
362
341
323
328
331
332
336
340
350
361
373
380
381
355
321
305
299
300
300
302
303
307
307
310
309
314
315
315
321
308
316
335
348
320
323
326
326
329
335
343
357
369
378
383
367
333
307
302
303
304
306
310
311
311
313
314
316
319
319
325
323
278
370
356
323
323
326
330
329
334
340
351
362
372
376
365
327
301
291
291
291
293
294
295
297
298
299
297
304
303
305
303
307
247
390
346
309
309
313
313
316
323
331
341
350
363
369
365
333
303
293
288
289
296
295
299
301
305
309
310
317
320
318
320
323
271
399
353
329
325
329
331
334
332
341
353
364
375
381
377
345
311
300
297
301
305
304
308
309
308
311
313
316
323
324
318
319
322
281
411
351
339
317
316
321
317
316
328
335
350
359
364
362
338
299
286
280
278
276
277
276
277
281
283
275
287
280
297
286
297
287
277
217
347
324
278
246
252
267
278
263
282
289
326
315
344
311
282
260
252
272
258
271
293
278
304
315
323
317
343
334
358
353
364
306
409
410
364
367
365
366
368
389
387
407
417
439
444
434
386
361
349
350
351
357
358
348
364
352
352
350
362
351
334
385
389
367
337
342
347
346
349
354
371
381
385
401
401
363
307
296
295
284
297
285
293
302
311
307
300
301
304
300
241
428
350
308
301
317
310
311
316
322
348
355
369
372
372
331
299
283
287
283
293
293
298
288
294
298
301
305
295
303
307
275
331
402
325
303
307
307
312
311
320
330
343
357
369
378
355
308
283
280
281
285
289
293
298
299
306
307
311
316
317
319
321
325
279
390
402
338
325
325
329
330
333
338
344
358
369
378
382
363
321
296
290
288
292
293
292
294
296
291
297
300
298
301
303
303
239
382
347
305
304
304
305
312
315
324
335
346
359
364
364
338
304
294
292
295
294
302
297
319
316
320
307
315
322
313
267
412
374
330
321
327
329
339
344
349
367
378
389
396
396
360
325
313
317
316
324
323
330
337
334
335
335
337
344
288
395
374
343
342
343
350
352
353
363
372
383
393
392
382
343
315
313
301
311
309
306
312
313
317
314
316
319
322
258
405
365
324
324
323
329
330
333
340
352
363
373
377
376
345
314
302
303
306
302
306
309
307
308
312
318
317
322
322
324
267
383
359
323
323
324
325
329
334
337
349
360
369
379
370
346
306
303
302
303
304
304
307
312
308
305
311
316
302
342
343
350
323
328
332
331
342
345
354
369
380
389
396
377
338
316
312
311
314
316
323
323
318
318
318
317
284
374
352
329
312
312
313
316
317
323
332
340
351
359
354
327
289
278
274
275
275
278
287
286
285
282
289
292
239
387
337
303
297
300
302
305
311
318
331
344
353
361
358
326
299
287
286
286
289
295
305
304
305
308
308
309
287
347
354
323
326
331
333
335
340
352
364
374
386
389
366
330
313
310
311
315
320
325
321
320
324
324
306
361
345
355
337
337
343
343
348
353
364
376
386
392
394
368
329
318
314
314
315
318
325
326
323
324
323
328
288
369
364
334
334
336
338
341
342
350
357
366
373
378
362
323
297
289
288
292
295
301
297
295
295
296
296
236
380
335
298
297
305
307
307
315
321
331
344
354
363
351
315
289
285
281
288
292
295
300
301
304
300
299
301
305
290
325
320
337
313
319
321
323
322
328
341
361
364
375
381
362
320
305
303
307
310
319
317
320
321
321
324
324
334
321
318
366
359
329
337
337
345
342
351
362
365
382
398
391
364
335
346
295
311
319
326
325
318
332
334
331
338
333
340
307
347
354
359
330
334
339
352
345
343
347
362
395
385
387
334
314
293
299
283
285
297
289
293
277
291
301
289
290
296
283
248
389
356
313
308
310
357
279
313
325
349
325
362
366
360
311
305
301
291
271
304
309
302
330
281
274
330
336
287
305
298
388
358
343
330
336
313
305
330
332
354
367
379
384
378
345
309
305
303
289
318
332
300
323
317
304
305
314
330
315
319
322
322
306
356
366
328
330
327
327
325
344
349
356
375
378
390
365
337
311
292
305
303
300
307
313
315
319
325
323
317
323
325
327
267
373
373
315
334
329
332
327
340
342
352
364
368
370
365
326
315
277
279
293
298
285
308
297
299
299
304
299
310
303
281
342
325
327
301
299
305
307
311
320
329
340
352
357
359
337
296
279
275
275
279
282
287
290
295
301
305
308
315
314
277
384
359
338
321
325
333
338
341
349
361
376
389
396
398
366
330
321
318
318
323
327
328
331
341
341
345
344
344
345
278
446
392
350
347
350
350
353
355
360
372
386
395
406
393
357
324
313
309
310
316
318
317
319
322
327
322
327
330
324
269
379
355
320
326
323
330
333
339
347
359
365
375
380
367
335
301
298
296
304
302
305
312
312
309
306
309
310
283
376
335
329
311
306
308
313
311
322
312
336
346
357
353
317
283
279
285
291
295
294
303
306
308
309
313
319
272
413
381
335
324
329
334
340
347
353
362
379
394
403
404
360
323
308
298
301
296
296
299
293
296
296
295
299
245
396
317
296
286
284
285
291
291
296
307
312
322
329
319
276
249
242
244
238
242
242
249
265
279
290
293
294
290
205
458
348
303
302
308
315
326
332
341
357
372
388
401
400
363
329
320
316
317
319
331
333
339
335
336
342
340
349
333
353
361
366
349
353
356
360
359
369
379
393
406
419
415
390
350
333
327
323
327
330
329
334
337
345
343
339
342
341
341
286
470
393
350
338
347
348
353
352
355
370
389
397
407
400
363
320
306
302
300
303
302
308
308
314
308
302
301
301
302
228
415
336
293
293
293
292
297
297
310
318
337
347
356
336
293
268
265
267
269
270
277
281
279
288
293
298
301
310
314
320
326
329
337
267
451
389
341
342
346
348
352
359
368
382
397
405
416
413
375
346
333
335
335
337
341
340
343
343
342
340
346
348
350
351
348
349
330
348
382
371
340
340
340
340
340
344
352
362
374
384
381
355
315
295
287
287
285
286
286
287
287
290
289
289
289
293
297
297
297
302
282
318
343
328
300
306
308
312
317
323
334
351
368
377
379
354
316
298
293
293
298
303
304
307
312
317
317
318
322
327
324
326
330
324
299
376
368
334
339
347
350
351
354
363
376
388
400
404
383
341
315
308
304
306
307
307
307
310
308
311
306
307
311
313
314
315
318
310
289
354
347
314
319
323
327
330
334
341
355
369
378
386
368
325
298
293
292
295
297
300
303
307
306
310
310
307
313
320
316
318
321
301
326
368
348
319
318
323
325
329
334
347
360
375
388
393
366
324
300
295
294
298
299
301
303
306
309
312
312
311
311
316
321
319
322
323
321
270
385
362
322
327
326
330
333
334
343
359
373
385
392
377
337
306
296
296
296
299
302
304
306
306
308
312
314
315
317
318
316
320
323
324
326
325
326
259
435
380
329
329
332
336
335
339
346
357
372
383
392
390
359
320
302
301
300
302
303
307
306
307
308
309
311
311
311
315
315
317
316
319
317
269
370
353
315
316
318
320
320
324
334
347
361
373
380
368
326
294
288
284
285
287
291
296
297
299
303
306
307
308
308
306
312
314
317
318
321
275
400
382
340
325
326
327
330
333
338
350
363
377
388
394
372
329
305
301
303
303
303
306
310
313
316
320
318
323
322
320
325
327
329
329
334
312
344
374
357
329
333
334
338
343
343
354
361
377
390
398
382
344
317
308
312
308
305
310
313
314
316
313
314
311
316
315
325
333
333
333
333
325
341
340
354
328
332
332
334
338
344
352
362
371
383
385
377
342
311
303
305
304
306
310
311
315
318
316
317
317
323
322
324
326
323
292
374
360
324
328
332
331
335
340
348
359
369
383
391
378
340
311
304
304
302
304
307
308
312
313
314
317
317
318
318
319
324
329
328
328
330
323
303
374
358
327
327
331
331
334
337
344
356
369
380
384
379
344
312
302
299
302
303
305
309
310
312
312
314
314
316
316
317
323
325
324
325
328
296
375
364
344
325
324
328
331
330
337
347
360
370
382
384
370
334
305
300
299
301
303
304
307
310
311
314
315
316
316
319
322
319
324
328
325
328
331
312
336
364
352
328
331
333
335
337
341
349
359
372
383
390
382
348
314
306
308
308
307
309
310
313
314
318
318
317
320
320
323
324
326
324
329
330
326
326
326
329
272
410
362
322
324
329
331
332
335
341
350
361
374
381
382
360
324
305
300
300
304
304
307
312
312
313
313
316
316
320
321
319
319
323
326
326
328
330
318
323
363
355
325
326
332
335
335
339
348
357
371
383
389
384
350
316
304
302
304
308
311
312
313
315
315
318
321
321
322
322
320
324
330
330
331
333
323
303
361
357
323
326
329
331
332
336
344
353
365
376
382
377
347
314
299
299
300
301
300
302
306
308
311
313
317
315
318
322
322
325
324
328
307
355
338
349
322
325
329
330
333
339
347
357
373
379
386
379
346
315
305
302
305
308
312
313
315
315
316
317
322
323
328
329
329
329
268
422
366
323
326
329
332
333
337
344
353
368
379
387
384
353
317
303
302
302
305
308
308
310
312
313
316
317
318
316
322
324
325
324
327
329
269
437
372
329
326
328
331
332
335
339
350
362
373
384
384
365
327
305
302
302
305
307
309
312
314
315
317
318
318
318
322
326
326
327
327
330
278
427
375
334
326
329
331
333
336
342
350
362
375
381
384
368
331
303
301
301
303
305
305
311
313
315
317
319
318
318
320
321
322
323
324
319
292
363
356
322
324
325
326
329
333
339
353
365
378
382
381
348
312
299
294
297
297
298
300
302
305
306
308
310
312
316
318
320
321
324
288
402
355
346
324
328
332
334
337
344
356
367
379
389
393
381
344
316
307
308
309
311
313
315
317
318
317
320
324
323
325
327
327
274
397
358
322
323
324
326
329
333
337
348
364
377
382
375
341
307
297
295
295
298
299
301
304
307
306
309
307
312
314
315
317
319
314
252
436
367
322
320
321
322
322
330
335
343
361
372
382
384
358
320
300
296
299
301
302
306
310
312
310
313
316
316
317
322
324
324
322
327
320
311
351
356
326
327
327
331
331
336
344
355
369
380
385
379
350
313
301
298
301
306
310
311
314
315
316
319
324
328
325
326
330
331
277
408
365
329
331
334
336
337
343
347
361
375
385
391
387
357
321
310
309
306
309
311
313
314
315
318
318
318
322
329
326
328
327
330
291
401
376
342
325
327
329
331
334
339
347
359
372
382
387
371
335
308
301
301
301
302
306
310
311
313
314
316
315
318
322
322
323
325
326
297
374
365
343
328
330
332
332
334
338
346
358
373
384
386
376
338
309
298
298
302
302
304
309
309
310
313
313
320
319
320
320
321
309
324
334
345
317
323
324
327
331
334
345
355
368
377
385
377
343
313
304
303
304
307
312
312
314
314
317
323
323
321
326
330
308
349
359
348
324
326
330
332
337
340
348
360
373
384
390
375
336
310
305
304
306
308
312
312
315
316
319
320
320
325
326
326
326
331
324
299
374
356
328
332
330
332
333
339
345
356
369
382
388
383
352
319
304
304
304
305
307
311
316
315
317
320
319
315
322
323
323
323
327
330
274
434
369
332
327
324
328
331
332
338
347
358
371
380
385
366
329
306
300
300
303
303
307
309
310
313
313
317
318
322
321
325
327
316
331
348
354
325
328
330
332
335
340
350
361
378
385
393
381
346
317
306
304
305
310
310
313
316
316
315
318
321
321
322
325
325
277
398
359
325
327
329
331
333
338
345
358
369
382
388
382
352
314
306
305
304
306
308
312
315
317
316
321
322
326
322
325
325
265
412
359
320
317
321
322
321
328
332
341
353
365
374
368
342
305
289
285
282
284
287
288
294
292
291
299
300
299
306
306
311
259
416
346
323
309
314
318
320
324
330
337
353
362
372
376
356
318
296
291
294
299
301
306
308
317
318
316
317
318
321
292
374
357
346
326
331
332
334
339
342
352
366
378
387
393
370
331
307
303
304
304
309
311
314
317
315
321
324
323
325
324
328
266
430
367
330
329
327
331
332
336
345
356
370
379
387
385
351
315
304
301
303
304
306
310
313
314
313
319
319
319
320
319
326
268
434
373
331
325
328
328
331
335
342
350
364
377
384
388
361
321
302
300
301
302
306
312
314
316
317
318
322
322
323
328
327
328
327
329
295
384
378
345
331
333
333
335
340
342
351
362
376
384
392
376
341
311
303
299
300
305
306
307
310
310
310
315
318
318
319
319
323
273
425
358
331
320
323
325
327
330
337
347
358
368
378
380
358
320
299
294
294
298
298
304
305
307
309
315
317
318
318
318
322
265
433
367
332
327
329
330
333
338
344
354
368
379
389
388
361
322
310
303
302
303
305
309
312
316
315
314
315
319
322
321
324
325
324
272
395
357
321
323
325
327
331
335
342
353
366
374
382
378
346
312
300
298
297
298
301
305
308
309
313
312
311
317
321
320
320
323
324
268
402
360
327
326
327
330
333
337
345
355
369
383
387
385
356
320
306
302
301
304
304
306
310
312
313
315
315
317
323
324
324
324
327
296
379
352
342
323
325
325
329
332
340
347
359
370
380
385
374
337
308
301
301
302
304
308
313
316
318
315
319
323
323
324
327
329
290
393
369
344
328
329
332
336
340
343
353
364
377
386
389
371
333
309
302
300
302
306
307
310
311
314
315
317
315
319
324
323
323
324
325
290
383
372
343
327
326
328
330
334
338
348
360
372
382
387
376
341
311
304
306
303
308
311
316
315
317
321
326
320
400
287
296
318
331
327
342
353
371
330
350
317
332
333
345
362
365
359
365
388
362
328
296
299
298
294
292
307
296
306
309
321
332
291
313
329
323
265
421
372
334
325
329
337
331
342
354
359
370
390
394
390
359
323
312
290
304
303
308
312
315
318
319
325
322
322
324
326
267
408
363
323
326
328
329
331
337
345
356
369
380
385
381
347
315
302
300
301
304
307
308
311
313
316
320
321
322
320
323
294
368
358
343
324
326
328
326
332
335
342
355
370
378
382
362
328
302
294
294
295
296
301
303
304
310
315
308
312
314
313
282
391
343
340
321
322
326
330
333
339
350
364
372
383
390
368
331
308
302
305
306
309
311
313
321
318
319
320
323
322
262
422
360
325
324
324
328
330
334
341
353
367
378
386
380
345
312
303
301
302
303
305
308
311
311
317
318
319
321
323
323
267
424
366
329
324
328
331
335
338
344
355
368
380
386
384
357
319
304
302
304
308
307
311
313
314
316
318
320
324
324
325
323
321
293
360
355
318
325
324
329
328
333
342
353
363
376
380
374
339
305
296
295
297
300
303
306
309
312
311
315
317
320
325
326
267
428
367
332
327
331
330
334
339
348
359
370
382
389
385
356
316
302
300
298
302
305
306
308
309
309
312
313
317
317
317
320
322
253
438
362
321
322
324
326
328
335
341
352
366
381
386
384
352
318
305
303
303
305
306
308
313
316
317
318
318
320
326
327
327
330
332
293
399
388
348
335
337
339
342
343
349
359
372
385
393
396
378
339
316
308
310
312
314
316
319
319
321
323
323
324
324
327
328
330
331
329
275
395
364
327
328
329
328
332
338
343
353
363
370
375
370
336
301
286
281
284
286
285
290
291
297
300
300
299
298
305
311
310
309
316
315
267
410
365
329
321
322
324
329
335
340
353
363
379
386
391
377
342
322
317
318
319
319
324
326
327
328
330
328
327
328
335
333
331
334
336
284
436
363
343
334
336
335
337
339
346
354
363
374
380
383
367
327
304
299
299
302
304
306
308
311
310
309
316
320
320
319
320
323
264
415
366
327
326
330
328
331
337
344
356
369
379
385
383
352
317
303
302
301
302
305
307
311
315
315
317
320
316
321
326
323
327
326
324
280
385
360
325
327
331
330
333
335
344
355
366
376
382
380
350
316
302
302
302
301
302
307
308
309
311
312
311
312
314
317
314
318
315
313
278
357
346
314
317
316
317
320
325
335
344
358
366
374
371
339
305
293
293
293
298
299
302
303
309
310
310
314
318
317
320
323
317
296
360
356
324
328
330
333
335
341
349
363
374
383
391
382
345
316
304
303
306
309
311
315
316
319
320
319
318
324
327
326
328
329
329
283
390
362
328
330
332
332
334
340
348
357
372
384
387
383
351
315
303
305
304
305
308
310
313
313
316
317
317
317
323
326
323
326
325
324
284
371
357
324
326
328
331
332
339
345
359
370
381
386
384
354
319
302
299
300
305
306
305
309
312
313
314
314
317
323
322
325
324
316
308
347
352
323
328
328
331
334
340
348
361
371
381
387
379
345
313
301
302
303
303
307
308
311
312
313
312
314
318
320
320
321
324
327
265
422
362
323
324
327
329
333
338
343
356
368
382
388
386
358
320
303
301
301
303
304
308
310
313
314
315
312
317
319
319
316
321
320
268
386
355
320
323
325
329
333
336
342
354
368
374
386
379
350
316
299
296
298
296
301
304
305
305
308
308
314
319
317
317
319
326
273
431
359
340
327
330
333
337
342
347
355
371
381
387
392
372
333
311
304
306
307
311
311
313
315
316
318
319
324
327
326
325
330
313
340
372
355
326
330
331
334
335
341
349
361
375
389
392
378
342
315
306
304
302
305
305
308
307
313
312
322
321
318
324
326
327
290
384
370
344
322
330
332
333
331
336
345
361
371
381
385
372
329
306
297
296
295
298
300
301
303
306
311
315
314
314
317
318
259
391
344
318
318
321
324
326
332
343
354
366
377
383
383
349
313
300
298
299
300
303
306
311
313
314
315
316
320
323
321
323
327
317
297
402
351
325
324
326
330
333
337
348
359
372
382
389
382
345
313
302
302
299
301
305
308
310
312
317
319
320
327
327
328
326
328
332
276
434
379
338
331
333
336
341
347
352
359
371
384
394
398
382
340
314
307
307
308
309
309
312
317
318
317
318
317
323
325
322
323
322
323
264
398
356
324
323
327
326
328
337
341
351
361
369
378
377
356
315
297
292
291
295
294
299
301
304
304
305
311
311
313
316
319
302
348
325
343
319
321
325
329
335
342
350
363
370
380
387
377
342
311
302
302
303
303
308
310
311
313
316
315
315
318
321
314
299
358
348
318
320
324
326
330
336
342
354
368
375
383
374
339
307
300
300
300
303
307
309
310
313
316
315
322
325
322
324
325
328
265
429
366
329
330
331
334
336
340
347
357
370
378
390
391
364
327
309
305
307
308
310
311
315
315
318
319
319
322
324
324
324
325
325
272
434
368
333
328
327
330
330
336
340
349
358
370
374
377
360
323
299
295
291
296
294
310
308
305
306
309
313
315
314
313
322
303
339
342
349
324
326
328
324
338
336
348
356
373
381
381
373
336
302
301
299
303
305
303
310
307
314
316
316
319
321
322
317
303
358
352
324
326
329
333
336
344
349
361
373
386
390
379
345
313
307
314
311
317
313
318
313
319
321
329
327
326
326
328
309
345
343
347
327
323
328
330
333
334
346
357
369
378
385
369
335
305
297
296
296
300
293
306
308
308
316
314
318
317
319
323
263
436
366
332
323
323
325
330
334
340
352
364
376
384
386
360
322
302
305
302
302
304
309
313
313
318
316
316
319
324
322
323
324
318
310
372
352
325
327
324
326
330
334
342
352
366
376
382
374
341
309
299
299
303
305
304
306
309
315
314
316
314
321
320
323
320
323
326
270
430
370
332
326
326
328
333
335
341
352
362
373
380
383
366
329
302
299
296
301
304
306
309
309
313
314
316
316
323
319
322
322
323
283
408
359
343
326
327
329
332
337
342
351
365
379
385
387
374
339
313
304
304
308
309
311
312
311
315
317
318
324
325
323
325
326
329
273
432
371
332
325
327
330
335
336
344
351
363
373
384
387
367
329
306
302
300
301
305
308
311
311
313
313
314
317
320
320
323
325
308
342
339
349
323
328
326
328
332
336
344
355
367
378
383
372
339
310
297
298
300
304
308
311
313
314
317
318
317
321
324
324
325
326
329
273
400
359
324
327
329
330
334
346
345
350
367
380
386
384
358
320
303
301
306
306
310
322
308
313
319
322
322
320
326
326
326
327
326
329
269
431
370
329
322
322
322
324
325
333
341
352
366
374
377
359
320
295
288
290
291
293
292
295
298
299
307
308
309
310
311
314
311
307
336
343
315
324
322
328
339
339
352
358
366
393
388
380
348
318
305
313
315
306
307
313
315
319
317
322
317
323
325
322
326
329
328
268
429
369
330
325
325
327
325
333
336
348
360
373
379
380
352
320
300
298
299
301
304
308
310
313
312
316
313
316
320
320
320
323
325
315
297
361
350
319
325
322
331
330
337
347
354
367
379
385
380
340
311
301
299
299
300
302
305
305
306
306
310
308
311
314
314
313
316
314
301
341
346
313
322
324
317
323
330
340
350
367
373
386
389
349
319
309
305
308
314
311
307
314
318
315
322
322
323
326
320
324
321
277
388
352
322
320
325
325
334
337
347
361
373
385
394
384
351
320
308
311
311
310
310
308
317
319
314
313
321
325
319
321
326
326
268
421
368
332
328
336
329
333
338
345
352
362
376
381
385
359
324
301
297
300
298
303
308
308
310
317
317
316
317
319
321
256
422
369
325
318
322
325
329
333
342
352
360
374
384
384
358
321
304
299
302
302
306
308
311
309
316
317
319
320
322
323
264
425
367
324
322
321
326
326
332
335
346
361
370
377
378
353
311
293
289
291
290
291
295
298
299
305
310
308
305
308
311
268
403
341
327
308
312
316
318
324
330
341
352
364
371
379
362
324
300
295
295
303
306
309
309
316
319
318
321
324
329
310
329
380
352
326
329
332
333
333
346
350
368
379
389
398
380
333
303
293
296
295
295
298
299
299
303
302
307
306
312
315
260
394
380
326
313
315
316
322
330
336
347
359
373
383
388
365
319
300
298
298
299
303
305
309
310
314
317
321
324
324
329
331
328
277
383
362
328
328
330
330
335
341
348
359
370
380
383
381
351
313
305
304
302
304
308
306
307
321
316
310
318
318
314
323
271
397
353
324
320
321
322
324
335
337
353
357
365
373
377
354
314
301
295
301
303
304
305
312
313
315
314
325
315
321
247
432
358
318
317
322
323
327
336
342
351
367
376
388
385
345
307
296
297
297
295
304
307
313
311
321
314
318
309
268
387
390
328
322
322
323
331
329
344
353
369
376
391
395
369
324
304
301
299
301
306
311
315
316
322
328
324
328
327
333
292
362
404
349
329
328
338
340
346
346
357
366
383
389
396
385
350
310
315
301
311
305
311
316
324
322
314
318
319
327
325
321
326
321
279
370
366
322
327
333
330
334
342
349
360
373
379
386
388
356
317
304
299
309
303
304
307
311
310
315
317
322
318
320
324
268
417
379
340
323
326
331
329
333
344
353
362
370
375
379
364
323
298
297
296
304
333
298
284
326
308
299
306
298
312
271
366
346
333
312
312
314
318
321
327
335
351
364
369
377
355
310
287
286
282
292
290
290
298
305
304
306
306
310
290
329
327
345
308
313
311
316
319
329
333
344
360
367
371
350
308
289
278
279
285
285
287
295
302
301
301
304
294
295
312
347
316
318
324
329
335
341
349
364
375
384
394
379
339
312
302
310
309
316
324
323
324
321
322
328
313
338
343
360
328
329
332
339
338
345
351
366
382
383
390
364
319
301
298
296
303
301
307
316
313
314
312
316
317
244
432
372
321
324
320
324
329
332
343
364
367
376
389
377
342
306
299
296
296
298
299
304
309
311
312
316
318
318
258
400
370
326
325
329
332
333
341
346
360
373
384
388
384
347
313
299
301
303
302
305
312
312
315
318
340
345
292
305
288
334
364
315
326
328
329
331
341
347
360
370
378
378
364
324
296
293
296
299
303
300
309
307
313
309
313
317
316
258
356
362
319
324
324
325
330
336
347
360
374
383
388
379
336
305
299
298
298
306
308
307
313
314
315
319
312
320
293
348
341
343
316
315
317
325
322
329
344
354
365
376
375
355
316
293
288
289
291
296
299
304
301
302
305
309
310
282
370
325
338
312
318
318
320
326
336
346
355
369
378
379
358
321
300
300
302
300
307
311
321
325
316
320
325
327
279
431
366
350
329
333
329
335
335
341
354
365
382
390
389
360
322
310
305
302
314
323
292
313
335
307
306
311
312
287
334
341
314
316
319
319
324
329
342
354
361
372
378
361
321
297
292
292
293
295
297
309
311
314
310
313
313
304
304
332
349
318
322
321
328
330
340
351
363
376
387
392
368
328
308
302
302
303
303
310
309
317
317
314
314
319
319
299
381
328
341
324
321
318
324
328
334
349
363
370
383
375
350
312
294
291
292
291
292
298
302
306
306
305
307
316
258
422
338
323
312
318
321
323
334
336
353
358
371
383
373
345
307
292
286
293
297
301
309
313
303
309
309
314
264
413
345
330
312
324
319
333
329
337
360
364
381
384
379
343
307
302
294
302
297
297
310
307
316
311
315
318
321
324
260
426
357
326
319
328
330
334
331
341
354
370
386
383
380
342
308
299
303
301
296
301
312
309
315
320
312
319
311
318
263
433
369
329
349
322
322
331
328
342
350
368
375
379
377
344
310
297
296
297
296
299
299
303
302
306
307
305
305
288
340
324
331
309
313
313
317
320
329
342
352
367
379
380
358
319
300
292
300
304
301
305
310
315
317
312
317
320
299
355
356
349
328
325
333
332
336
347
361
376
390
403
402
374
327
307
301
302
299
305
310
314
318
315
315
315
319
268
416
364
339
320
318
326
328
329
339
351
365
377
388
383
347
307
291
289
288
294
295
300
302
309
309
309
313
315
314
262
364
350
313
317
316
320
321
331
340
357
365
375
382
363
323
293
282
285
286
285
292
297
302
301
299
302
304
280
371
329
331
313
313
315
320
326
331
345
357
371
380
377
345
305
289
287
289
290
297
304
311
310
305
309
314
307
288
369
344
311
316
318
323
325
329
342
355
369
381
382
351
304
283
279
277
280
280
284
284
291
290
292
293
295
294
215
437
356
296
292
291
295
296
299
309
322
340
354
364
361
320
279
270
269
272
276
280
285
290
298
300
303
305
307
308
311
269
375
377
322
310
321
337
331
342
344
362
372
386
393
369
333
311
301
296
310
306
310
315
316
313
326
324
328
330
331
266
388
385
337
334
343
338
340
351
353
372
380
391
397
387
348
312
310
301
309
305
314
308
316
313
326
313
318
323
267
395
361
336
311
311
311
315
320
328
338
349
361
365
365
333
290
276
279
277
278
286
290
291
290
293
301
302
302
304
308
231
407
363
309
307
313
309
318
318
332
345
357
366
377
366
333
298
290
288
293
296
299
300
306
311
313
316
318
319
322
270
414
368
344
323
326
328
332
339
345
356
367
377
386
384
350
314
295
293
292
294
293
301
304
305
311
309
312
315
320
256
426
370
331
322
329
328
334
339
350
360
371
384
391
380
345
312
297
297
297
302
305
309
311
314
314
317
316
320
319
267
375
356
318
322
326
328
329
340
348
358
373
379
387
368
326
300
291
291
296
294
298
305
307
312
311
310
312
314
252
418
361
325
322
324
328
331
335
345
353
370
380
389
378
340
307
300
295
299
296
300
303
312
310
313
309
314
317
274
392
360
335
313
318
320
322
328
329
341
357
368
372
373
336
294
278
275
272
277
275
280
282
285
287
287
289
291
291
224
382
336
294
293
299
300
303
311
319
336
354
363
374
358
315
287
279
282
286
288
294
295
299
304
307
310
311
311
317
255
429
367
326
321
321
327
328
331
342
361
374
387
393
385
345
312
298
298
300
303
306
309
320
315
320
317
317
325
286
402
355
351
331
333
335
340
344
353
366
377
390
395
399
360
321
302
299
301
309
312
316
321
320
316
316
322
315
283
360
351
323
325
321
323
331
334
343
355
373
378
386
356
321
298
294
295
298
294
301
311
315
313
308
310
304
305
293
344
349
299
296
306
311
309
314
324
346
355
372
380
348
311
285
281
276
279
285
288
297
299
304
302
310
309
304
311
275
367
340
332
311
307
305
300
307
318
326
335
353
359
352
319
275
269
253
252
263
261
263
263
263
273
272
273
279
284
288
228
399
343
296
293
290
298
309
311
322
340
355
366
382
375
344
310
296
298
305
306
313
312
323
320
335
331
337
341
341
343
276
446
402
350
348
351
358
359
368
377
392
407
417
425
416
377
342
327
325
332
333
335
336
331
335
337
334
336
335
324
313
351
358
324
325
321
325
328
329
339
353
366
374
380
347
299
279
272
271
273
274
277
280
280
279
284
288
286
288
294
294
213
418
344
292
298
301
304
309
315
328
340
357
370
383
375
339
309
294
296
299
304
305
312
316
322
324
324
326
327
323
300
340
364
333
333
338
341
333
343
360
362
371
381
375
353
315
288
287
284
289
296
304
317
317
318
323
329
313
330
297
397
351
359
341
332
341
339
340
355
362
372
391
389
388
362
314
299
298
300
293
306
301
311
313
311
306
307
310
256
423
343
322
312
316
321
316
320
331
342
352
364
374
358
320
283
272
271
268
274
272
280
281
281
284
279
284
287
251
332
321
291
290
296
295
305
310
323
335
349
358
365
343
299
271
268
273
275
279
280
289
299
302
299
298
303
309
236
410
359
316
316
324
327
329
340
352
366
376
395
398
392
346
321
313
313
316
319
328
329
338
343
342
341
346
345
273
452
415
357
348
353
350
351
354
363
377
390
395
400
387
353
314
305
296
300
303
302
312
312
309
309
313
309
252
419
353
320
311
313
317
323
331
339
352
362
373
378
372
330
294
284
286
288
290
294
302
300
299
300
303
304
215
466
362
311
308
310
315
318
324
333
348
367
379
391
377
328
296
291
289
292
293
304
308
312
313
315
320
268
386
402
339
323
327
332
334
340
349
358
373
388
398
394
355
316
306
301
301
304
308
315
321
323
324
327
326
260
379
376
328
331
336
339
344
348
354
366
380
389
396
374
330
308
302
302
303
304
307
315
316
316
321
319
322
250
409
376
330
324
326
330
332
334
340
353
361
374
380
373
335
299
288
285
289
289
296
303
302
303
303
307
277
376
317
336
310
315
320
323
327
335
347
357
368
376
377
341
306
294
292
293
298
304
310
308
308
312
316
305
295
351
354
320
322
325
329
333
339
351
365
377
389
390
356
317
299
296
298
299
302
306
312
315
313
316
319
308
281
361
360
321
323
327
329
334
341
349
365
380
390
391
361
319
302
298
300
302
304
308
314
316
318
319
324
327
254
411
378
328
329
330
335
339
345
352
363
378
387
396
376
335
305
297
294
298
297
301
303
306
312
313
317
318
318
254
378
360
320
320
326
331
336
340
352
364
376
385
391
371
333
302
295
297
298
301
305
308
312
316
316
318
322
283
378
368
348
326
331
334
336
341
349
363
376
389
396
389
353
314
306
306
307
311
310
315
318
322
320
322
327
328
265
377
371
330
329
330
334
337
345
355
370
381
391
394
367
329
303
297
297
296
301
304
311
312
315
312
316
317
294
347
338
353
319
322
327
331
336
344
356
367
380
387
383
346
308
295
294
295
297
300
303
305
308
311
312
312
315
315
251
383
364
315
317
320
323
327
332
342
356
371
381
385
358
315
293
290
292
294
299
300
303
309
314
317
317
317
321
286
362
361
347
322
325
323
327
333
340
354
365
382
387
384
351
310
298
292
293
293
300
303
307
309
311
311
313
316
281
385
346
343
317
318
320
323
328
333
346
358
371
379
372
329
292
281
279
280
283
287
289
291
291
293
299
300
302
303
306
230
411
367
309
311
313
314
319
327
338
350
366
378
386
369
327
299
294
294
295
299
302
305
308
312
315
320
321
323
326
294
372
373
355
329
333
336
336
345
350
365
375
387
392
385
353
316
300
298
299
302
302
308
311
310
316
317
320
323
323
279
422
357
350
329
331
336
340
346
355
366
379
389
400
396
356
319
305
305
308
313
314
319
317
321
321
325
323
325
327
273
412
400
344
328
326
330
331
335
343
356
370
385
388
381
339
305
294
294
292
296
299
301
304
306
309
311
314
313
316
317
252
423
386
328
320
319
322
324
330
337
350
366
378
384
375
334
302
291
288
287
290
290
292
294
295
293
292
300
296
297
298
297
229
367
344
294
295
296
299
302
307
315
332
345
357
362
339
298
273
268
268
270
276
280
284
290
289
292
298
301
306
307
312
251
419
372
331
321
323
326
331
337
349
361
376
384
393
386
348
314
303
301
302
303
309
312
314
319
322
324
325
330
331
279
429
392
351
333
335
337
342
348
357
368
385
398
406
395
356
319
308
308
310
314
317
320
321
321
322
326
325
327
331
324
290
383
372
332
334
335
336
340
347
357
372
387
396
397
368
323
305
305
303
304
307
310
313
315
316
320
319
322
328
326
259
401
376
330
328
333
331
338
344
353
369
380
388
396
375
335
306
302
300
301
304
306
310
311
311
318
316
321
322
321
276
363
365
323
326
327
331
337
343
353
366
380
390
392
367
325
306
298
299
302
306
308
310
311
313
317
319
322
324
326
260
427
394
335
327
330
332
335
340
347
362
376
389
397
385
342
311
303
300
302
302
306
310
314
314
319
318
322
324
316
301
333
357
320
323
322
326
326
334
344
352
365
375
370
336
296
279
270
268
267
271
274
275
276
279
278
279
282
270
270
299
320
283
286
290
295
300
307
318
335
351
361
362
331
288
275
271
273
276
282
286
290
297
299
303
303
307
310
235
412
368
317
320
325
327
331
338
347
363
382
393
399
373
327
306
302
301
302
305
308
313
319
323
326
325
327
329
322
292
376
365
327
327
330
330
332
337
346
361
376
386
382
351
310
291
287
286
287
291
294
298
297
298
299
305
307
309
308
310
253
413
370
324
314
316
319
323
330
339
351
368
380
391
381
346
310
299
294
297
300
304
309
312
315
320
322
322
322
325
308
331
361
361
330
331
333
338
343
350
361
376
388
401
398
364
322
308
304
307
308
311
314
318
320
321
326
329
329
330
333
317
320
385
366
334
336
339
339
345
352
362
376
391
399
402
367
325
310
306
307
307
313
315
318
317
315
319
323
323
325
326
330
264
391
373
330
330
333
335
340
344
353
368
380
389
395
372
330
301
293
293
295
297
302
306
309
309
313
315
315
316
320
321
247
408
374
321
322
326
329
329
336
345
358
374
386
395
372
329
304
298
298
300
302
308
310
313
316
315
318
323
323
325
324
318
298
361
365
330
331
334
336
337
343
355
368
381
394
396
370
331
307
303
303
304
304
309
313
316
315
322
323
322
325
322
290
349
363
328
330
331
334
338
346
354
368
381
387
388
357
315
293
288
286
287
289
290
288
287
291
289
289
291
290
291
218
392
340
287
285
287
288
289
295
301
316
332
345
350
330
288
264
260
261
264
266
273
277
283
284
288
296
296
298
302
307
283
333
353
339
317
321
324
328
335
341
353
369
384
396
397
362
321
307
306
306
311
312
317
320
325
326
328
330
333
334
334
334
323
322
364
371
337
339
339
343
349
356
366
379
392
403
403
374
331
311
307
307
311
316
318
322
322
321
323
328
333
330
331
333
271
434
398
340
333
334
335
340
343
350
361
379
391
401
388
349
315
304
298
305
302
298
304
307
310
314
318
317
315
321
304
332
338
353
323
325
330
333
338
343
354
368
381
390
388
351
310
294
289
292
293
297
300
304
307
312
315
317
321
326
325
253
430
384
335
337
336
338
342
348
361
377
395
408
415
392
347
320
312
313
312
317
319
320
321
320
325
326
330
330
330
331
258
427
385
329
327
329
330
333
339
347
362
374
384
391
373
334
302
292
293
291
295
297
300
303
304
305
304
307
308
309
313
298
315
348
353
319
322
327
329
331
338
350
364
376
386
386
356
313
297
294
297
301
306
309
310
312
312
312
310
315
320
322
326
327
328
256
442
396
335
331
332
334
341
342
351
363
378
394
402
394
355
321
304
303
307
306
308
314
316
319
318
316
321
324
326
328
327
331
269
436
375
342
329
333
336
337
342
350
362
376
390
398
391
355
315
302
299
299
302
305
309
308
312
313
316
316
315
320
322
324
326
327
330
252
441
388
329
328
329
329
334
336
344
360
375
387
396
387
348
312
301
302
304
303
308
312
312
314
319
319
319
322
326
328
328
329
330
292
383
376
352
329
331
331
336
338
347
357
371
384
392
396
367
324
303
298
298
299
304
309
311
310
311
315
316
315
320
325
325
324
327
324
274
376
369
325
328
330
330
337
343
352
365
378
391
395
379
335
307
299
297
299
303
306
306
308
313
311
313
315
318
314
318
324
325
324
326
323
268
397
367
323
326
329
332
334
340
349
363
379
391
396
379
336
307
299
299
299
301
304
306
312
314
319
321
325
323
317
324
324
324
325
328
298
373
361
353
327
329
331
334
336
344
351
364
375
381
383
359
317
290
285
279
278
279
281
282
283
284
285
284
283
286
291
289
290
293
283
260
351
329
292
294
298
303
308
315
325
339
357
367
374
353
310
284
282
284
285
288
292
298
304
305
309
312
313
314
322
324
324
327
330
309
338
391
360
331
332
334
335
338
344
356
364
381
390
392
370
327
300
291
290
291
290
293
294
292
296
297
300
299
300
299
304
306
306
310
285
344
323
336
305
309
310
315
322
324
338
352
367
372
378
356
312
286
276
279
279
284
287
294
296
300
304
306
312
313
316
319
274
395
378
342
323
329
332
337
344
350
360
376
393
402
402
369
325
310
306
306
306
309
311
312
312
313
315
315
311
313
317
316
317
319
320
246
435
383
320
317
318
320
322
327
333
345
359
374
383
381
353
313
295
292
293
295
299
303
307
310
314
315
312
318
320
320
323
325
325
274
423
381
348
333
334
335
341
344
349
359
373
388
395
393
366
324
305
300
300
300
302
305
307
307
309
313
311
314
314
315
315
246
430
370
322
314
318
322
330
332
340
353
368
379
387
382
343
304
291
290
290
293
296
301
302
301
302
303
302
307
308
306
306
310
292
308
378
343
312
313
315
319
323
328
338
351
365
378
384
363
319
292
289
289
290
292
298
302
304
306
308
310
314
318
318
320
323
282
390
384
348
329
329
333
338
339
345
358
371
387
399
400
370
330
310
306
302
304
309
311
312
315
316
317
316
320
322
321
323
326
328
258
439
379
332
326
328
331
335
340
349
361
371
385
390
390
358
316
300
295
298
300
305
307
311
312
313
316
315
317
319
320
319
319
321
253
438
400
331
324
324
328
332
337
344
355
368
380
