496
407
358
359
358
365
364
372
392
403
416
422
410
367
340
334
335
337
346
357
346
345
353
346
288
473
419
369
358
352
364
361
366
381
398
415
421
415
382
352
337
342
335
344
353
361
351
350
350
353
285
460
406
361
360
359
362
360
369
383
400
409
413
411
382
348
336
334
341
343
353
347
350
347
348
335
364
364
387
355
356
358
360
367
376
389
396
404
406
387
355
336
336
334
340
351
350
345
345
347
347
298
406
394
353
356
360
366
365
378
389
403
407
412
395
364
341
339
343
349
352
361
351
347
347
352
324
406
400
378
350
350
354
358
364
376
392
405
410
404
376
342
332
327
329
332
343
343
340
342
343
341
310
369
384
345
349
353
359
357
372
385
396
407
402
382
356
334
333
325
341
352
351
347
344
351
347
294
424
397
362
363
365
364
373
385
395
409
420
417
409
369
348
340
342
346
353
360
357
353
358
360
326
404
411
385
360
357
361
357
367
376
398
406
425
411
385
351
341
339
335
340
347
349
349
346
347
355
284
465
403
364
355
356
361
364
373
383
400
408
410
396
374
339
335
333
332
346
352
345
347
352
353
326
399
375
385
351
359
363
366
371
390
402
409
418
419
387
356
348
340
344
351
357
366
356
357
363
361
304
472
424
371
361
365
364
368
372
384
400
410
414
412
380
346
339
340
336
338
346
353
348
348
346
350
288
463
408
367
351
360
358
357
370
383
400
403
411
405
373
344
339
336
338
343
351
351
349
348
350
353
282
457
406
359
358
360
361
366
375
388
405
414
421
406
370
348
344
345
345
354
353
357
364
358
364
360
334
410
409
380
363
363
362
363
366
377
397
407
411
409
382
355
333
332
333
334
338
346
345
346
349
347
344
319
374
389
351
354
357
359
365
371
393
399
410
408
388
353
340
333
337
342
352
353
361
355
360
362
366
290
475
416
368
362
369
371
371
383
394
411
421
422
405
374
348
341
345
346
347
356
356
357
355
351
356
288
449
400
359
357
359
360
364
371
384
404
413
412
399
363
338
333
332
333
340
355
347
350
350
349
354
307
391
387
355
357
361
363
370
379
396
408
419
412
396
360
343
340
342
347
354
355
366
358
361
359
361
317
441
416
380
363
361
364
369
368
380
394
412
416
412
377
350
336
337
338
346
344
352
357
352
360
352
345
321
388
391
354
359
355
362
364
373
389
408
415
410
385
355
336
331
334
340
343
352
348
346
346
349
350
338
365
389
356
360
365
370
382
389
405
418
427
419
395
359
345
347
352
350
361
364
363
356
358
360
348
343
411
392
359
360
360
364
368
377
392
408
418
416
384
347
337
329
335
337
338
345
351
349
351
355
349
309
389
391
353
354
357
362
363
378
390
400
411
412
389
351
335
333
330
337
341
347
350
349
347
352
352
297
427
401
363
358
365
371
372
381
398
411
424
423
403
368
349
343
351
349
351
357
361
359
360
359
366
315
441
420
380
366
362
367
369
373
386
407
415
423
411
376
345
336
333
340
340
340
350
355
353
353
352
343
350
365
388
357
357
362
362
368
383
394
408
414
414
378
347
334
335
336
341
342
354
350
352
349
354
358
293
482
413
373
362
363
366
363
372
394
406
413
418
404
367
342
340
342
344
350
352
360
360
354
360
358
352
313
431
395
358
361
363
366
370
382
400
416
423
422
386
350
344
337
338
344
343
348
352
360
352
357
356
331
386
415
384
357
360
364
361
371
380
397
412
418
413
381
347
341
337
339
342
347
352
355
354
352
353
356
354
309
423
401
359
363
359
362
366
380
398
407
412
418
393
352
338
336
336
341
340
338
335
352
357
357
353
350
322
391
410
387
351
357
360
361
372
376
401
419
423
412
388
350
341
337
339
339
341
346
349
354
354
357
357
348
336
371
390
353
355
359
365
366
374
389
401
411
407
378
347
334
324
332
336
343
342
351
342
346
348
332
366
379
389
349
352
356
361
366
379
398
402
415
406
375
343
330
337
339
340
342
349
353
347
351
352
351
283
452
401
354
353
360
362
367
380
393
411
425
423
389
356
345
337
340
344
348
358
356
358
361
358
342
373
391
397
361
365
366
372
375
389
406
415
426
416
380
345
338
330
335
344
355
346
348
349
345
347
315
372
389
350
354
361
365
371
380
392
407
419
410
386
343
336
332
336
344
349
357
350
348
347
351
299
447
404
369
352
357
359
367
369
382
409
421
425
411
374
345
337
339
343
342
352
355
353
352
353
361
298
464
410
366
362
360
360
366
373
392
410
421
424
403
361
338
329
329
332
339
354
350
343
345
349
344
324
363
378
352
352
357
364
370
374
392
404
415
416
380
346
336
334
339
343
360
362
354
354
352
364
294
453
406
362
362
361
365
369
381
395
413
424
426
398
362
340
336
338
345
344
356
350
346
346
349
331
362
383
383
352
354
354
361
362
382
391
414
417
414
377
340
328
326
323
326
332
347
340
335
341
335
309
419
372
374
349
352
360
365
374
386
403
418
430
425
381
349
339
341
344
347
352
356
365
357
354
359
359
303
466
422
375
364
358
365
367
375
391
409
424
430
421
379
347
344
336
340
342
341
350
363
357
353
353
356
330
401
399
383
354
354
358
361
367
377
396
413
419
417
382
351
328
324
327
328
333
336
339
342
347
346
344
348
347
302
386
383
352
355
356
361
366
376
389
399
415
413
403
363
344
333
335
338
344
344
353
356
355
353
351
355
294
485
412
371
358
359
362
365
383
389
407
417
427
418
379
351
334
337
342
344
346
348
355
361
359
357
358
362
344
348
420
396
360
363
363
363
366
383
394
410
423
427
400
362
341
337
336
336
338
338
346
352
352
352
350
355
359
330
383
401
384
351
358
357
358
361
377
391
411
412
412
382
345
329
322
322
319
326
328
331
330
337
337
339
341
343
289
458
380
362
347
343
349
353
360
372
390
405
415
412
379
345
331
326
331
335
344
337
344
347
357
350
355
352
358
281
466
404
358
359
359
359
364
373
393
403
420
427
412
371
342
336
336
340
335
343
344
346
354
358
357
358
367
358
290
487
421
371
366
364
363
366
377
384
411
420
428
422
381
355
338
334
337
341
344
347
352
352
351
357
353
357
315
458
388
383
357
363
364
371
378
391
409
421
432
422
395
358
349
346
344
349
354
358
362
365
363
367
367
366
312
490
424
380
368
369
368
371
380
390
411
426
432
425
381
350
339
337
339
341
344
347
354
352
350
354
359
357
321
411
416
380
356
356
360
361
367
377
399
413
424
418
392
351
335
329
336
333
335
343
345
345
355
354
356
361
348
343
418
396
355
357
356
363
366
377
394
412
419
418
388
352
332
329
329
330
335
336
338
348
347
350
352
355
358
300
424
399
357
356
359
356
368
373
394
414
421
428
404
364
342
338
338
342
341
346
350
348
355
358
356
360
301
471
414
378
360
364
359
376
372
386
407
413
418
414
382
346
335
334
336
340
344
348
360
357
354
364
363
346
362
400
402
366
370
365
372
384
388
404
418
431
428
401
364
344
342
341
347
349
347
348
356
363
354
353
359
352
336
417
398
363
358
361
365
364
379
391
408
421
421
396
361
337
333
334
334
339
337
343
350
349
354
352
352
349
353
286
456
405
355
356
358
355
360
366
386
397
407
412
409
364
337
330
326
329
330
339
343
346
352
345
347
349
358
294
483
408
374
362
357
367
375
376
393
410
420
427
414
379
351
344
339
345
347
354
353
356
358
360
361
361
360
368
290
479
415
365
363
363
369
369
381
394
409
421
430
410
372
348
338
341
345
339
343
353
350
348
349
356
358
356
358
353
318
408
396
357
358
359
363
366
377
394
407
419
417
402
360
339
335
330
336
337
345
341
343
347
348
349
354
352
353
289
432
395
360
354
360
360
366
376
391
404
419
417
409
371
344
337
340
337
342
349
348
349
355
360
357
357
362
360
290
485
415
362
359
358
363
364
372
390
404
418
421
409
371
342
338
337
339
340
346
349
350
350
347
356
356
360
360
358
361
292
484
418
366
360
360
358
362
372
379
401
412
421
414
382
344
333
333
337
335
341
344
344
349
348
350
350
350
359
359
360
364
350
353
413
394
360
361
360
362
365
378
396
411
416
421
403
365
347
337
332
337
339
342
344
343
350
354
350
352
354
354
363
297
483
395
378
355
359
362
367
370
382
401
413
419
416
386
352
337
338
340
340
349
347
347
351
352
352
353
357
357
356
359
281
474
405
360
357
359
358
365
374
385
408
419
421
408
366
341
337
338
338
343
343
344
345
347
346
353
357
356
357
359
361
283
472
404
357
356
362
364
362
374
389
409
420
425
412
376
350
338
338
344
347
345
351
351
353
355
358
352
361
366
362
366
365
352
364
408
394
365
366
367
366
374
381
395
414
421
425
406
363
340
334
331
337
337
340
344
342
345
344
350
351
352
352
361
323
436
376
388
358
363
363
371
374
388
405
419
419
419
394
359
344
346
338
344
346
348
347
350
351
353
361
363
365
364
369
298
490
431
372
364
365
365
368
374
386
402
419
424
415
383
346
334
334
338
339
344
339
350
343
348
352
353
354
354
356
335
375
395
381
353
354
355
357
363
370
390
403
412
413
387
353
334
333
327
332
336
340
341
342
348
349
348
352
355
355
293
448
397
358
358
356
360
365
373
384
403
417
417
405
376
346
338
337
337
343
347
352
351
354
357
363
361
364
365
368
310
489
426
384
365
366
368
377
377
392
408
421
427
422
389
355
342
344
345
345
345
349
354
352
358
358
358
357
361
361
301
471
417
372
357
361
360
362
367
382
395
411
421
412
383
341
335
326
327
333
335
338
338
341
349
350
352
354
356
355
293
475
400
363
357
352
359
361
370
379
396
408
414
412
373
345
337
330
336
343
346
354
350
353
360
363
364
361
366
367
308
489
417
385
368
369
369
376
378
390
407
421
428
425
391
357
342
341
342
342
345
346
345
351
347
359
357
355
355
358
361
285
481
415
363
360
362
364
367
369
385
401
413
422
409
374
341
333
332
329
335
338
343
338
340
345
344
345
353
351
355
351
357
302
403
392
357
352
359
359
364
371
391
403
414
420
409
370
343
338
341
344
349
350
352
353
356
360
365
367
368
364
370
296
485
422
368
368
367
371
371
382
396
413
427
427
416
373
346
341
342
341
348
346
352
350
352
352
358
360
358
355
361
309
453
425
377
357
359
363
365
366
381
396
415
421
418
386
350
331
333
335
332
337
339
339
343
349
348
353
350
351
354
319
444
384
384
357
358
366
362
370
377
398
407
417
415
388
354
340
340
338
342
348
348
351
352
354
357
363
364
367
365
302
453
416
362
365
367
367
370
379
394
414
423
433
408
369
345
340
341
341
340
346
348
347
345
351
353
354
357
357
358
309
444
420
373
359
357
356
361
366
379
396
407
419
417
386
348
337
332
332
331
334
336
340
336
341
345
352
353
354
363
345
358
394
393
357
358
358
362
366
378
388
409
419
422
397
358
344
331
336
344
344
338
349
350
349
346
346
356
358
356
361
354
297
459
402
360
364
361
367
364
378
393
411
421
428
409
367
349
335
332
341
337
338
341
346
348
345
350
352
352
358
358
346
340
431
389
355
358
361
361
363
375
391
405
421
423
402
360
340
334
328
335
340
341
345
346
348
352
354
351
354
358
329
414
370
393
364
363
363
370
372
387
402
415
424
420
398
359
343
338
342
348
348
349
352
356
355
359
364
358
367
311
478
415
379
360
361
361
365
371
385
401
416
421
419
383
351
337
334
336
340
334
341
342
344
345
351
351
355
355
349
319
410
394
352
352
356
359
362
374
391
405
416
420
398
358
333
331
330
336
336
342
343
343
345
347
347
348
357
344
349
379
392
356
359
358
358
369
377
395
405
420
418
397
358
342
335
338
338
343
347
345
354
351
354
358
358
358
332
406
418
384
358
363
363
368
369
383
398
416
425
418
388
352
336
337
339
338
337
339
343
350
349
349
353
347
354
297
412
391
355
355
356
361
367
373
386
405
416
421
401
365
340
331
334
339
339
344
349
356
356
355
361
360
357
317
405
403
365
367
370
370
380
390
401
418
426
433
407
369
347
343
343
347
353
352
358
358
352
357
356
366
315
441
418
381
360
360
362
358
369
381
402
415
426
425
392
355
345
337
332
337
333
339
344
349
351
347
348
351
345
352
375
390
354
357
365
367
369
381
397
411
422
418
393
355
338
332
331
337
341
344
342
352
351
348
358
359
356
325
388
388
349
353
352
354
360
366
382
391
397
391
369
336
316
307
307
312
311
320
326
321
310
317
316
319
279
375
342
316
313
318
319
325
333
350
365
366
365
357
326
319
321
330
338
345
363
357
362
371
375
382
317
574
435
398
395
401
406
409
417
434
454
467
482
465
416
383
378
381
378
380
386
387
380
379
381
382
366
377
427
403
372
372
373
372
378
390
405
422
432
432
394
354
337
337
334
335
332
336
345
340
341
347
341
345
280
477
402
348
339
339
340
342
352
364
384
395
399
389
349
318
306
306
315
311
312
317
320
320
324
325
333
330
334
337
339
265
451
387
340
339
339
344
346
358
370
388
405
410
402
366
336
329
327
329
330
335
340
345
347
348
353
353
357
361
360
308
435
410
360
366
366
371
373
381
401
413
426
431
412
373
345
343
345
346
348
349
350
355
356
360
364
362
370
368
362
342
414
403
365
369
372
375
376
388
404
423
430
435
416
368
351
345
346
349
352
359
356
360
363
363
360
369
369
373
369
367
328
431
414
370
375
376
381
381
389
403
420
429
434
416
376
353
348
343
345
349
352
351
354
356
357
357
359
360
360
363
364
338
403
411
394
364
367
367
371
374
381
395
414
421
422
400
365
344
337
339
339
345
345
349
349
351
355
355
361
360
360
365
356
343
403
402
361
365
365
372
374
382
403
414
427
427
405
369
347
340
342
347
351
350
351
355
351
354
353
358
361
365
364
371
303
487
423
375
372
368
371
372
377
387
403
420
431
424
390
355
345
340
341
348
344
347
351
356
353
355
357
362
360
360
362
343
380
402
388
360
359
363
369
371
379
395
411
417
421
399
359
338
335
335
337
338
343
344
349
352
345
350
357
357
356
356
358
293
464
412
362
358
361
364
367
373
386
402
420
423
417
382
349
338
339
339
340
344
345
346
350
350
350
357
356
357
357
349
344
397
392
358
359
363
363
368
375
390
408
420
421
397
358
335
330
330
335
333
336
335
337
337
341
347
346
348
349
351
292
466
405
360
348
349
353
358
365
377
396
411
418
416
384
345
330
330
332
333
336
338
344
344
343
348
349
351
351
356
313
433
398
372
353
354
356
358
365
379
395
410
421
422
393
353
339
335
337
340
341
343
350
350
356
360
363
363
366
369
302
474
413
372
368
366
372
371
380
394
411
426
432
425
390
357
349
347
349
351
348
352
353
353
354
357
360
359
362
363
330
414
411
384
360
364
367
370
372
386
403
419
428
430
403
365
344
340
342
340
343
346
347
355
350
354
360
356
360
361
361
292
456
404
360
359
361
366
369
372
389
406
420
424
418
380
350
338
333
335
340
342
346
345
351
354
353
356
358
362
303
487
409
376
364
365
366
369
376
389
407
420
428
425
388
354
340
342
343
345
345
346
346
350
352
356
354
356
359
358
309
431
399
358
358
358
364
367
374
387
405
421
426
407
366
341
335
333
335
337
337
341
342
345
347
352
353
351
355
350
325
406
393
354
356
359
363
365
373
389
405
420
424
407
366
342
335
333
336
338
340
343
343
345
350
350
350
352
353
294
462
393
361
353
357
358
362
371
383
400
414
424
417
383
352
338
342
346
344
352
351
351
355
355
357
359
362
363
338
389
413
385
359
360
362
362
367
380
397
412
423
428
399
356
340
337
336
336
338
343
341
345
348
352
353
354
355
357
303
463
410
371
356
357
361
367
369
381
398
415
426
421
392
354
342
344
343
345
343
344
349
348
350
357
355
358
359
363
302
476
407
371
360
359
363
365
372
384
397
413
421
416
386
348
336
333
335
337
339
345
348
352
355
357
353
356
361
308
483
408
381
364
366
367
373
380
388
406
420
428
425
392
355
341
338
341
344
346
351
348
350
353
356
358
355
359
360
291
462
407
361
361
360
363
370
376
388
408
425
431
417
376
347
338
339
339
341
341
344
348
351
351
352
350
358
327
414
386
380
354
353
356
359
367
377
394
408
413
418
382
347
332
327
330
329
336
339
341
344
348
347
348
354
340
364
388
390
357
359
364
369
370
380
394
414
424
427
397
357
338
335
338
342
343
348
351
353
354
353
356
356
358
301
473
413
370
367
366
366
370
373
388
404
417
431
423
380
347
340
337
343
339
343
346
349
349
354
350
355
357
301
431
393
364
358
361
367
372
381
390
405
420
428
415
373
345
332
336
340
342
347
354
358
355
355
358
361
301
477
413
371
364
368
371
371
376
392
410
420
433
424
381
352
342
343
343
350
347
352
359
357
359
359
360
358
297
476
412
363
359
364
368
369
375
386
407
416
430
421
380
344
339
340
338
343
343
346
346
355
358
360
362
356
362
299
458
403
365
359
363
364
371
374
384
402
415
428
414
375
346
336
326
333
335
342
340
349
348
349
350
353
358
300
444
398
365
364
365
373
378
386
395
415
425
434
417
373
349
340
341
348
351
348
353
352
358
358
359
359
358
359
312
435
401
357
362
363
366
368
376
392
409
423
427
409
368
343
339
337
340
342
344
345
352
354
353
355
356
358
303
420
396
357
361
365
362
367
375
387
406
418
422
405
367
339
330
335
334
339
344
346
349
351
356
352
356
357
321
452
402
388
365
367
368
373
378
385
401
418
427
430
401
359
342
340
338
343
348
352
351
356
359
360
359
361
362
312
451
414
377
358
363
360
367
370
381
396
413
422
419
389
348
335
332
332
338
338
345
343
348
352
348
349
351
352
289
432
392
356
349
357
353
356
365
377
394
404
413
404
366
330
322
321
323
326
329
332
339
342
344
349
350
356
298
481
421
379
363
367
369
371
381
389
407
422
430
429
396
361
351
350
351
351
355
356
359
366
370
369
368
370
370
313
448
412
371
374
375
377
382
385
396
415
428
430
417
379
352
342
343
340
345
347
348
357
358
352
359
356
363
300
426
396
359
353
356
364
369
380
389
403
415
426
415
371
343
336
336
336
342
345
351
350
354
355
356
356
359
352
317
414
393
356
361
357
362
365
374
394
406
424
428
408
369
340
333
334
338
339
340
344
346
351
352
355
357
358
305
414
399
359
356
361
367
367
373
391
406
417
426
409
371
344
332
336
339
339
340
349
355
350
350
355
358
324
435
377
388
360
364
369
369
375
384
398
413
422
422
395
359
338
339
339
339
343
344
356
354
351
353
358
359
286
484
412
363
356
366
361
364
375
383
401
416
421
414
375
346
336
336
334
339
341
348
353
354
353
353
357
334
386
401
385
356
357
361
365
372
379
392
410
423
423
395
355
334
331
335
338
339
344
346
356
353
350
351
355
345
352
375
385
355
360
359
364
369
379
393
408
418
427
403
363
340
335
336
343
346
349
359
358
355
354
360
362
295
480
411
373
365
368
372
375
384
392
411
424
434
423
386
353
346
346
348
351
357
358
362
367
361
356
359
361
353
334
420
397
359
361
363
368
371
378
391
409
417
426
404
364
340
341
338
337
338
343
347
351
348
351
350
355
352
299
420
392
356
357
359
360
365
374
388
407
413
421
408
367
343
329
328
328
338
337
343
351
353
350
350
358
337
376
367
390
356
359
360
370
370
383
398
410
420
429
402
367
345
336
342
347
349
348
353
353
360
357
358
362
364
319
439
411
380
355
353
359
360
363
380
398
409
417
424
390
349
335
338
330
339
341
341
346
345
355
354
353
357
358
349
330
428
398
359
363
364
368
368
377
397
413
426
433
412
368
347
339
343
341
342
348
349
355
358
359
357
356
360
306
471
402
373
356
353
360
361
367
376
394
407
418
411
383
338
327
319
324
323
331
329
333
340
338
340
344
344
322
393
371
379
349
350
354
361
362
372
390
403
416
417
395
352
332
326
328
330
334
336
337
342
344
345
347
346
353
305
430
407
372
348
348
352
352
358
366
383
399
409
408
381
341
321
325
323
324
327
332
336
339
348
345
346
349
351
290
475
407
362
355
356
362
367
373
384
401
416
429
420
388
351
342
340
340
342
341
348
353
359
360
361
363
366
336
439
396
398
369
372
381
382
387
395
415
430
441
440
414
369
353
353
354
357
362
364
361
364
367
369
368
369
369
324
448
434
394
370
367
371
373
379
387
407
419
433
432
405
358
338
336
342
341
343
353
352
360
351
352
351
358
326
411
387
387
362
361
362
362
373
378
397
412
420
422
394
356
335
329
332
335
335
345
357
351
345
352
356
361
293
445
401
365
364
368
369
376
386
395
416
425
438
420
378
348
338
343
342
344
350
353
364
361
357
357
361
358
288
469
413
361
363
363
364
369
373
383
405
416
422
414
368
334
330
329
334
334
338
342
344
345
347
349
351
283
448
402
353
353
354
356
360
369
380
397
411
421
406
366
336
328
329
330
333
334
344
347
348
346
347
351
321
430
377
386
359
363
362
369
377
385
406
422
427
433
404
367
351
351
350
351
355
363
369
371
365
370
369
357
364
424
400
369
366
366
369
370
379
395
411
420
426
394
354
335
334
334
335
338
341
347
349
353
348
351
354
323
406
396
378
356
358
360
361
362
373
390
404
421
415
389
351
332
328
328
334
333
339
349
348
347
347
351
353
292
471
402
366
358
360
365
368
379
391
405
420
428
420
384
355
340
340
344
344
350
351
355
359
357
360
361
362
295
471
412
365
361
362
362
369
375
387
403
415
423
412
368
339
335
333
337
340
341
344
346
349
351
351
352
360
326
402
411
385
361
360
364
366
368
380
391
409
420
426
400
357
340
342
341
341
346
346
355
356
357
357
355
359
322
432
381
382
357
359
363
364
372
382
399
412
423
425
395
357
341
337
341
343
349
354
358
362
360
359
363
365
296
489
424
373
364
365
369
369
379
390
404
420
424
419
379
348
336
336
338
341
343
347
347
355
350
352
351
355
293
428
396
355
359
358
362
365
372
387
405
417
425
407
368
338
331
333
337
338
340
348
348
348
351
351
352
297
407
393
356
356
363
365
372
379
396
411
422
431
414
374
347
340
342
347
345
356
358
357
356
360
360
341
370
407
391
360
362
364
366
370
378
395
412
424
422
391
353
332
331
332
335
337
341
347
348
346
347
353
350
306
402
389
351
354
358
358
362
369
386
403
413
422
402
358
334
326
325
332
337
339
348
347
346
348
346
345
323
372
389
357
361
362
369
371
386
397
411
423
427
406
367
349
343
346
351
347
355
359
357
356
361
361
357
328
421
403
363
363
368
368
375
382
398
413
423
429
404
362
342
336
336
338
341
342
349
347
350
349
354
355
289
448
403
358
357
357
362
365
372
390
403
418
423
407
370
344
332
330
335
337
342
347
354
347
348
350
354
304
460
382
373
348
352
357
362
371
387
403
410
424
419
386
353
337
336
337
340
345
350
355
354
353
357
358
345
367
399
399
361
366
367
371
374
386
400
419
428
428
401
358
340
337
343
342
346
347
350
353
357
353
356
358
304
464
415
375
360
361
361
364
372
379
396
414
425
421
383
344
326
328
327
334
335
338
345
350
344
346
348
351
286
452
398
356
354
353
357
362
368
383
401
416
419
411
370
339
327
330
328
333
341
345
353
348
343
348
351
334
379
373
387
355
356
360
366
374
386
402
418
429
432
403
362
345
338
341
341
349
351
365
359
359
356
360
358
322
419
404
362
368
372
375
374
380
398
412
422
432
407
359
338
332
333
338
339
340
348
353
349
350
355
352
289
473
415
361
354
357
358
365
368
383
401
414
423
414
376
338
333
328
332
340
339
347
351
347
347
351
350
307
447
389
375
350
359
358
363
367
378
393
409
423
419
384
346
331
327
330
333
337
351
346
340
340
348
348
292
424
393
359
358
359
368
374
383
394
414
429
433
418
375
346
339
339
339
347
352
366
361
356
355
360
354
327
411
400
357
361
364
369
372
381
395
413
421
425
398
359
335
337
337
341
344
346
361
356
354
354
359
351
335
403
396
361
365
364
365
367
378
393
414
425
428
403
359
336
331
335
340
337
347
352
354
347
351
349
351
291
473
403
364
357
357
361
364
371
381
399
410
417
410
377
343
331
331
329
325
332
337
342
354
346
349
352
359
308
461
398
381
356
360
363
368
370
384
401
414
426
431
399
367
339
341
343
342
343
354
361
359
355
358
358
358
295
454
414
363
361
364
367
369
372
383
402
418
431
427
383
349
336
327
328
330
334
335
345
354
350
349
350
340
313
412
380
348
350
350
358
363
370
384
401
417
423
403
358
341
336
337
344
345
350
362
369
359
361
366
367
301
462
416
370
368
371
375
380
387
393
411
418
428
419
382
346
334
334
334
335
341
348
348
347
343
345
349
292
476
392
370
353
356
356
361
370
379
394
409
415
412
379
345
332
334
334
340
343
349
352
349
349
350
353
353
286
454
401
356
362
363
368
369
376
392
406
421
423
414
372
347
344
342
345
349
352
354
365
362
359
360
364
362
319
417
409
367
369
371
368
374
379
392
413
420
426
412
369
342
335
336
338
344
345
356
357
352
354
353
352
291
444
397
362
357
361
362
369
379
388
401
417
424
417
380
349
337
338
346
350
354
365
356
355
355
359
352
336
388
401
361
360
364
367
372
380
397
411
422
423
394
358
340
332
330
337
339
349
352
344
341
342
346
294
448
391
358
347
347
348
349
352
364
376
393
401
396
361
323
311
309
309
314
320
334
326
323
330
330
319
335
344
368
338
342
343
351
356
366
382
397
408
412
389
353
332
329
335
341
350
362
357
359
357
362
354
353
388
404
369
375
378
384
390
399
413
430
441
442
416
376
357
354
354
361
365
373
382
373
369
369
371
353
378
415
400
373
378
375
369
381
391
402
421
429
431
405
358
339
332
334
334
340
346
353
354
351
354
355
310
437
381
380
355
354
363
363
370
381
393
417
424
421
386
348
339
337
341
340
348
348
361
353
347
350
354
343
340
407
391
360
366
367
371
375
386
401
413
430
433
407
367
345
339
346
348
346
347
364
358
362
359
359
360
296
430
399
367
359
367
366
372
381
397
409
424
430
411
373
346
339
338
339
336
344
351
354
354
345
348
351
296
467
387
370
360
364
363
372
378
389
404
415
425
421
386
356
340
339
347
350
351
356
361
352
357
355
359
323
403
406
380
360
362
362
367
367
383
397
417
428
424
386
356
334
332
335
334
334
339
340
350
348
350
354
356
288
437
392
356
352
359
358
365
372
388
406
411
419
411
369
341
329
328
333
334
343
344
350
349
348
355
357
312
402
398
361
365
368
369
377
387
399
413
425
429
409
373
345
339
344
346
346
351
352
352
352
354
358
352
289
466
406
361
359
359
362
365
371
386
403
415
425
410
370
338
331
335
336
336
339
340
349
352
349
353
353
354
316
383
390
352
357
363
362
364
374
385
402
411
416
398
357
336
326
329
330
338
341
354
345
346
346
353
333
393
378
391
359
363
366
372
379
389
406
417
425
425
398
356
341
338
343
345
349
351
362
360
356
356
357
357
290
456
404
364
364
366
367
369
377
385
404
420
425
409
374
339
333
330
334
336
338
344
346
344
345
343
348
295
465
385
367
351
355
361
361
373
381
396
408
415
409
374
346
330
330
334
341
346
359
363
355
358
356
362
301
482
417
379
368
369
369
376
380
391
405
425
430
426
385
349
344
342
343
347
347
354
365
358
353
355
358
350
336
398
391
357
360
361
366
366
376
389
408
420
423
398
357
337
332
331
332
334
340
350
350
345
345
347
349
291
434
390
357
357
358
359
363
374
383
399
409
416
409
371
343
335
336
340
343
352
363
361
353
357
361
364
303
463
413
369
369
371
372
378
385
399
415
426
432
420
377
347
343
343
346
348
352
355
365
362
358
359
360
351
333
406
394
360
362
365
370
372
382
395
412
423
426
403
359
344
339
340
339
341
345
348
359
357
352
351
358
349
332
384
391
356
358
359
361
365
376
388
407
418
417
400
359
334
328
327
330
334
338
343
349
345
348
346
349
338
346
363
385
351
358
364
368
376
384
397
412
420
425
402
362
345
341
343
347
351
351
355
363
360
355
358
360
357
313
426
400
364
362
365
368
368
379
390
408
419
425
405
364
340
330
334
337
340
338
346
347
357
351
352
350
355
305
451
392
375
356
359
361
363
369
379
396
407
416
417
388
350
334
330
332
330
336
337
343
355
349
350
350
359
331
418
372
389
362
368
372
375
382
393
406
421
433
433
406
366
347
346
350
352
356
358
361
369
370
364
363
367
369
300
485
421
368
365
368
368
371
376
388
403
418
426
417
380
347
336
337
335
337
342
340
345
351
350
348
344
348
353
285
439
392
354
352
353
357
361
364
378
392
404
411
402
366
335
323
321
325
328
332
337
342
351
350
351
357
354
339
372
378
391
360
363
366
372
376
383
396
413
428
433
407
366
346
344
343
346
348
352
349
353
360
361
359
363
364
363
297
455
403
362
355
359
364
363
373
383
399
408
416
407
368
339
331
327
331
337
339
341
342
345
348
352
352
354
357
329
407
391
386
360
362
363
367
373
384
396
414
424
430
401
364
341
336
339
338
341
347
351
355
355
358
354
360
365
327
453
397
393
370
372
373
381
376
391
408
424
432
432
400
362
343
344
343
347
352
353
352
353
360
358
362
367
364
362
327
423
405
365
369
367
373
375
384
396
415
427
432
409
370
345
343
342
344
346
353
346
352
354
348
357
354
355
298
433
397
363
354
359
360
360
373
379
396
417
419
407
370
340
332
334
332
341
342
347
351
355
356
358
359
364
298
461
414
367
367
365
370
376
382
395
410
430
431
420
377
347
339
341
346
348
348
349
354
356
358
355
362
361
324
428
416
380
364
358
361
369
369
382
392
410
419
425
384
348
332
329
330
328
332
336
339
344
341
342
343
348
309
432
371
371
347
353
355
356
365
381
393
408
418
416
387
353
336
334
344
338
348
351
359
362
357
361
362
362
334
413
408
392
361
365
368
377
377
387
399
420
430
428
398
355
343
331
341
339
342
341
346
356
353
354
352
357
356
291
456
408
359
360
358
356
364
371
383
400
417
424
412
376
345
332
332
336
336
338
339
342
349
349
345
347
354
323
399
370
383
358
353
359
366
365
376
398
411
420
420
398
355
341
333
341
339
344
348
349
359
358
354
358
359
355
298
436
397
358
357
359
359
368
375
391
402
422
431
412
370
342
337
334
335
341
348
347
347
358
344
346
350
350
312
434
394
378
351
357
355
359
368
380
395
413
426
423
390
352
336
329
332
335
336
340
345
351
347
348
350
353
352
299
411
391
354
361
359
366
368
381
396
412
423
430
418
375
346
338
339
347
348
350
355
355
366
360
363
361
363
345
386
417
392
365
362
364
371
378
380
397
416
429
427
404
357
335
332
334
333
339
339
344
346
345
353
347
351
354
313
431
411
377
362
358
362
364
373
378
398
410
427
423
391
349
341
333
336
336
339
339
343
346
352
351
351
355
357
293
443
402
362
358
363
362
364
372
384
403
418
424
413
373
342
338
337
338
338
340
347
349
351
354
355
359
364
355
337
405
395
358
362
358
360
369
378
390
404
419
426
396
355
332
327
329
327
320
321
326
337
348
352
348
350
349
350
300
432
392
356
362
363
370
371
379
396
409
421
427
410
370
341
335
336
339
339
341
344
345
348
346
345
347
353
296
471
398
371
357
361
362
367
370
384
397
411
420
414
380
349
332
331
336
339
345
346
350
350
351
349
350
353
354
292
446
405
365
360
365
368
371
374
385
406
415
421
407
369
340
328
335
332
337
344
343
344
344
346
352
349
349
353
347
324
418
390
352
354
357
361
365
369
383
402
416
419
397
352
330
325
332
335
339
340
342
342
342
347
346
341
339
344
352
324
417
375
320
339
344
344
348
352
366
387
406
413
401
361
344
344
349
357
360
363
368
368
373
375
376
371
373
376
345
429
381
400
372
377
373
377
378
390
405
418
424
431
409
368
350
350
352
355
359
369
368
372
371
375
369
362
358
298
475
416
365
344
345
352
351
344
351
386
411
428
426
392
350
328
320
349
355
373
365
361
373
361
348
327
322
322
335
324
366
399
374
376
380
381
388
393
405
417
430
433
423
381
352
350
349
353
360
356
350
353
348
350
355
357
359
344
341
431
394
361
361
357
361
366
376
400
415
427
433
416
364
343
339
340
340
339
346
346
350
350
349
349
340
355
382
388
354
358
362
364
371
375
391
402
412
413
392
353
330
329
325
332
332
336
343
344
350
348
348
350
271
458
391
350
346
347
352
351
356
365
381
399
408
404
366
335
320
313
318
320
321
331
335
326
329
334
340
275
469
399
362
355
360
363
372
378
392
407
422
430
430
387
352
342
342
342
347
351
353
357
360
363
364
365
369
363
345
430
405
363
368
368
371
379
385
398
416
429
433
411
368
340
337
335
331
338
341
347
347
353
352
352
354
361
321
429
394
383
359
361
360
363
369
379
392
407
418
420
386
349
328
326
328
328
332
338
344
348
348
349
350
355
302
472
401
381
360
362
366
373
375
391
406
421
431
429
396
357
343
343
340
344
350
351
358
362
360
358
360
361
333
402
407
391
362
365
371
369
374
380
400
415
426
430
400
357
339
335
338
341
341
343
352
353
353
356
352
358
302
470
407
374
358
361
361
363
369
378
399
411
420
422
385
349
332
332
333
334
337
343
351
354
352
354
359
360
303
435
404
367
368
368
376
383
390
401
417
430
436
422
380
357
345
344
347
350
352
360
355
357
360
361
363
336
400
403
390
359
360
365
367
372
381
401
416
424
424
392
351
333
330
336
342
344
347
354
355
353
356
353
357
290
444
395
358
358
364
364
368
371
386
400
412
414
402
359
336
327
326
331
335
339
346
354
362
362
364
367
350
366
398
393
361
366
368
375
378
386
400
416
430
426
402
359
341
339
339
343
345
347
351
353
359
359
357
357
298
435
406
361
361
366
366
368
379
393
406
416
428
409
367
340
326
338
335
341
345
352
349
349
348
351
325
392
368
379
352
359
360
361
371
372
390
410
421
423
388
349
337
328
327
333
343
346
345
343
345
347
328
411
361
386
351
361
360
371
380
382
400
419
427
427
395
356
341
344
341
344
348
356
354
351
351
358
356
294
441
402
359
366
361
364
361
375
381
391
414
414
399
363
323
326
333
329
336
337
348
350
352
349
350
339
292
464
421
366
358
359
361
363
365
380
394
414
422
417
380
339
333
332
329
340
341
342
345
349
349
352
357
289
460
410
363
360
359
361
371
376
388
399
413
423
416
372
341
324
331
333
336
338
340
347
345
345
345
348
348
333
360
383
345
349
356
354
361
372
389
396
414
421
395
361
341
338
344
337
351
345
351
357
358
359
360
370
300
448
409
365
365
371
367
374
390
389
408
423
431
415
373
346
336
341
337
345
348
345
355
358
355
361
358
361
292
478
416
368
365
374
367
376
375
391
404
419
432
420
387
356
343
338
343
344
354
346
354
351
352
352
356
357
298
472
413
368
359
360
364
366
368
383
395
415
417
419
381
346
336
332
335
337
345
343
344
346
348
354
350
353
355
285
471
414
363
359
360
360
367
370
388
397
416
429
422
385
346
337
335
331
332
337
337
338
341
346
345
344
347
339
332
376
388
351
355
353
359
363
374
390
402
418
418
399
358
334
330
325
330
336
338
340
343
346
345
348
351
353
310
395
395
364
364
373
379
384
394
407
423
436
444
429
387
363
355
358
361
364
367
366
372
369
371
374
373
372
304
476
421
370
368
365
371
374
380
390
408
421
427
408
367
337
329
327
332
335
336
337
341
340
345
347
351
348
355
297
455
398
365
348
351
354
353
361
367
383
401
410
414
380
337
319
316
318
317
319
322
326
331
332
332
333
339
340
276
456
389
358
355
361
363
369
380
388
407
422
432
430
390
358
345
346
348
350
354
356
354
358
359
358
360
362
366
312
471
426
377
362
365
368
372
374
384
404
422
427
426
391
359
340
342
341
342
342
344
346
350
359
354
356
358
358
312
399
397
360
363
365
370
372
381
393
411
417
424
408
367
339
333
335
340
339
350
353
355
356
359
358
363
367
313
441
410
374
374
376
376
383
390
407
423
434
445
426
386
353
348
348
347
357
358
363
360
364
365
367
363
369
362
357
423
399
365
364
367
372
370
376
394
410
424
427
404
358
336
332
330
330
337
337
341
344
351
347
348
352
340
324
379
384
346
348
352
355
361
371
385
403
409
417
394
350
328
319
322
321
322
331
336
341
348
347
352
352
341
376
382
393
358
367
364
368
377
387
396
412
427
432
401
362
340
341
338
346
346
345
349
352
354
356
357
358
365
314
447
424
388
361
364
367
370
375
389
400
420
432
434
397
353
341
334
344
343
343
344
347
348
358
357
360
360
359
333
380
404
394
360
358
362
373
370
379
396
414
424
429
400
355
340
335
330
337
342
345
344
344
347
354
348
350
353
352
346
377
380
394
357
362
362
363
367
380
394
411
422
425
403
360
334
335
332
337
339
346
345
347
347
356
354
358
364
361
309
430
407
362
364
361
370
376
381
393
414
430
435
424
375
347
338
340
344
344
345
348
349
353
351
361
360
363
361
364
301
445
406
358
358
362
364
368
373
390
403
419
427
411
369
339
330
329
331
334
338
337
344
345
350
351
351
350
353
308
457
390
380
353
359
358
366
370
381
395
414
422
429
400
357
343
340
340
347
354
351
358
360
363
371
369
371
374
374
315
455
417
368
373
376
378
378
384
395
416
428
439
422
377
347
339
337
337
344
346
344
344
348
351
354
351
354
355
358
289
479
408
360
356
354
354
364
367
377
394
408
419
416
384
346
323
323
325
326
334
334
334
346
346
351
351
354
359
317
468
403
388
361
369
369
373
379
390
407
422
431
435
403
362
348
340
342
347
346
349
347
353
355
358
362
362
361
363
325
428
421
381
358
361
359
364
368
380
395
412
424
421
396
351
332
324
329
328
328
333
335
337
341
343
345
341
349
295
468
380
363
346
348
351
352
360
374
388
407
417
418
384
347
335
333
337
340
344
351
356
360
368
364
368
367
372
301
496
427
375
365
369
370
374
377
391
409
425
429
431
391
348
339
340
339
343
341
343
345
350
358
359
356
350
359
292
477
413
369
363
367
367
370
372
385
400
414
427
424
383
345
331
332
333
335
338
341
342
349
348
345
344
348
348
281
453
391
354
350
353
358
361
365
378
391
406
414
412
382
345
335
332
339
336
339
349
344
350
356
357
363
367
359
343
412
407
370
368
372
378
385
390
408
419
435
441
420
375
347
339
341
348
349
355
351
352
355
360
360
359
360
360
292
461
406
360
364
362
364
365
375
384
402
414
421
411
370
338
326
328
331
326
332
334
333
341
343
340
340
348
347
295
407
386
351
351
346
350
355
365
379
397
407
413
408
366
336
325
326
325
331
334
341
348
353
356
355
356
360
305
487
404
378
362
368
373
372
378
390
408
422
436
429
400
362
347
346
346
352
357
360
363
364
368
374
367
367
373
365
326
442
404
357
362
366
364
371
372
391
408
424
430
412
367
336
330
330
328
332
337
341
347
345
340
343
342
340
329
374
393
347
349
348
354
355
371
383
400
415
420
394
354
325
325
322
326
326
327
332
334
329
329
332
337
290
461
366
359
345
349
354
353
359
373
387
408
418
427
395
361
347
345
347
350
359
371
369
369
370
373
372
302
485
420
374
367
369
377
374
384
395
412
426
434
421
379
346
338
340
337
338
342
347
349
345
355
351
349
299
419
395
344
349
346
351
350
358
371
386
402
406
385
347
318
310
309
314
315
323
330
328
329
326
334
336
270
441
377
346
340
343
350
357
363
377
395
412
417
414
375
341
330
333
338
342
350
355
353
355
355
356
350
318
434
396
364
362
367
368
364
375
392
412
424
427
404
361
338
332
334
339
339
345
351
351
350
351
352
355
288
445
400
358
361
359
362
365
374
387
404
421
425
412
363
338
333
335
338
344
344
353
358
357
356
356
361
309
457
425
378
366
367
368
374
380
389
403
422
430
433
402
366
349
348
349
351
354
359
364
367
369
365
367
363
337
400
401
363
366
367
365
372
377
389
406
417
420
398
360
333
331
326
328
330
332
337
340
337
338
336
339
291
452
367
359
342
343
347
350
358
369
381
394
404
406
375
342
327
329
333
337
339
341
346
346
346
350
352
338
351
399
394
362
365
369
368
375
385
399
418
428
435
412
371
354
349
350
353
354
360
366
368
367
369
371
372
326
423
414
372
375
372
379
383
388
403
420
430
435
414
371
348
339
337
343
347
347
353
357
355
356
357
360
322
441
382
386
359
363
365
370
373
380
398
412
422
424
396
358
337
341
341
343
350
355
359
366
358
362
363
367
304
490
416
375
364
372
373
374
380
395
414
426
436
427
387
357
349
343
350
353
350
356
358
362
356
362
363
364
299
468
414
368
366
364
365
371
377
390
405
422
429
421
378
345
335
338
339
338
337
345
348
351
353
354
353
351
313
390
389
354
354
357
361
365
374
391
406
421
424
401
359
338
328
330
329
336
337
343
346
349
350
350
355
330
399
382
386
354
360
361
363
365
377
393
409
419
422
386
346
330
326
332
330
334
339
336
343
349
348
349
346
353
286
462
404
360
351
351
354
359
364
377
394
411
420
414
375
341
330
323
327
325
330
332
341
345
345
345
350
352
291
466
391
362
352
356
358
360
371
378
397
415
423
419
378
347
335
333
339
337
344
348
354
362
358
362
367
370
304
491
423
377
371
371
376
380
384
398
415
435
440
431
388
354
347
346
348
347
350
353
358
365
363
360
362
364
336
398
400
387
355
359
360
364
369
382
397
410
423
424
394
350
330
326
326
328
332
338
346
347
338
342
342
343
285
400
375
341
343
344
351
358
364
381
400
414
422
412
369
339
335
336
340
345
351
357
367
363
363
362
371
356
348
415
401
362
367
365
370
371
382
400
415
426
430
404
362
339
335
337
340
340
345
347
358
353
352
350
356
346
351
387
390
355
356
359
360
362
377
386
408
420
426
399
357
334
328
329
333
337
336
340
350
345
343
342
348
345
320
384
391
358
363
364
371
376
386
404
421
432
439
417
375
352
346
343
345
347
351
361
367
364
363
365
362
364
296
482
414
363
362
362
365
366
375
391
412
422
429
417
377
342
334
331
337
341
340
347
354
361
350
348
351
355
300
469
412
370
356
357
358
360
366
380
397
417
423
419
382
347
335
331
335
334
337
340
345
351
349
346
346
347
347
304
395
387
350
353
354
355
363
371
384
405
409
415
398
358
333
324
326
328
328
334
341
353
349
342
348
348
352
296
420
396
361
363
364
373
376
385
399
420
430
435
421
378
350
343
346
344
348
351
355
365
362
359
357
363
362
294
456
405
357
360
359
365
365
374
389
408
422
430
411
366
337
330
333
335
336
339
343
352
352
348
346
348
353
288
451
395
355
353
358
356
361
371
387
402
417
425
414
372
341
328
330
330
330
335
343
353
358
352
354
355
357
309
476
401
384
363
367
372
375
384
396
413
427
438
439
403
366
349
346
349
350
352
357
356
364
366
363
361
363
363
294
488
419
367
359
357
360
365
371
380
395
411
419
415
378
340
329
330
332
333
334
336
340
340
354
345
346
350
350
339
348
379
385
350
352
353
356
363
371
383
404
412
420
398
356
329
320
322
324
322
329
335
345
343
339
343
345
350
308
394
386
354
355
364
363
375
384
398
416
431
437
424
378
354
344
345
346
353
354
360
365
367
361
367
366
355
359
419
403
367
369
373
376
374
385
403
419
430
432
406
361
345
339
338
340
342
347
353
356
358
354
358
360
357
316
427
399
362
365
368
365
372
378
396
410
424
436
414
369
343
336
339
336
340
341
341
345
349
354
352
351
352
324
411
374
380
352
351
356
359
370
377
393
408
421
424
397
361
340
337
337
339
345
348
349
359
362
361
364
363
370
300
467
413
367
364
368
367
371
376
393
408
422
429
416
380
345
339
338
340
341
338
344
346
347
353
354
354
353
356
320
413
415
374
354
353
357
358
366
372
387
405
414
426
391
350
331
325
329
327
338
331
339
350
340
347
348
350
317
420
379
376
354
358
357
365
369
381
393
415
425
428
399
362
343
341
345
352
351
357
360
365
368
371
367
374
332
446
419
399
375
372
377
378
383
388
407
420
435
430
404
364
350
338
345
347
347
354
352
353
358
361
356
360
364
355
334
421
398
365
365
365
367
372
380
395
413
422
433
410
371
344
339
340
341
339
343
344
344
348
350
355
355
353
354
337
376
382
386
348
352
356
359
362
367
388
402
412
418
398
356
335
325
326
329
331
338
334
336
343
345
340
350
355
361
288
451
407
366
362
368
369
374
385
393
412
428
435
424
389
349
345
344
347
346
353
351
354
360
359
358
363
363
366
292
473
414
363
361
363
367
371
377
388
404
422
427
416
377
345
340
339
334
340
340
346
346
346
351
353
356
359
356
360
294
442
401
357
358
364
362
365
373
389
402
418
429
416
380
343
334
336
332
339
339
344
346
344
354
355
354
358
359
363
296
484
415
376
362
368
369
382
381
396
416
427
438
435
400
367
351
353
348
351
358
357
360
366
363
361
364
362
336
402
413
387
361
361
369
369
373
382
395
414
426
432
397
359
340
336
336
337
334
339
343
350
353
355
357
361
328
434
390
391
366
369
376
379
376
383
397
415
427
428
404
362
334
331
328
330
333
342
345
352
351
350
350
354
332
399
379
390
356
361
364
369
377
384
396
413
427
430
405
361
340
340
338
341
338
345
346
353
352
349
351
352
337
361
405
387
352
357
357
359
365
369
386
400
412
417
390
345
327
325
325
327
330
331
341
345
343
346
346
347
297
454
404
368
353
349
357
360
365
372
393
406
421
417
383
347
336
326
330
333
336
335
348
346
346
352
350
354
296
472
400
363
357
357
357
362
370
381
398
408
419
418
379
344
330
331
333
336
342
352
352
353
351
356
357
291
482
412
372
353
356
361
363
367
380
392
410
416
411
372
333
323
323
328
328
328
335
334
340
337
338
341
341
278
427
384
341
342
345
347
347
356
373
391
408
411
398
352
325
320
323
329
330
330
335
339
345
343
344
347
345
298
399
384
349
352
353
361
366
374
391
403
414
423
407
369
342
336
335
339
341
346
350
360
358
359
367
369
359
365
399
412
371
378
381
384
387
400
415
432
440
446
425
381
361
358
358
359
364
365
368
376
372
368
375
374
365
334
431
407
367
371
374
370
377
381
398
412
424
431
409
370
344
339
339
338
343
344
347
356
357
360
358
362
362
326
435
396
379
360
363
365
368
373
381
399
415
423
422
395
351
332
325
328
328
333
342
342
355
348
343
353
352
338
353
376
396
361
365
368
376
378
389
404
422
430
435
411
367
344
337
341
344
348
342
345
348
358
351
352
356
361
282
470
416
352
351
351
355
355
363
377
396
406
422
413
372
340
332
332
333
333
336
339
348
349
351
350
353
354
295
412
395
357
363
362
362
368
376
388
406
418
424
406
366
338
327
330
333
336
346
349
356
352
353
354
360
296
467
412
370
367
372
377
377
389
399
421
439
443
430
383
357
346
351
351
351
354
357
361
366
363
366
364
366
294
477
426
368
366
371
367
371
376
392
402
417
428
416
375
341
330
332
339
334
338
344
347
349
351
356
354
357
293
432
400
360
359
359
359
366
369
384
397
418
420
408
369
333
327
333
333
336
345
349
360
358
361
359
366
338
425
415
405
372
374
376
383
386
394
408
432
439
440
408
364
349
348
347
349
349
352
359
367
361
359
363
362
295
474
423
368
358
364
364
370
374
384
399
417
430
415
378
340
328
329
329
334
336
348
347
341
342
348
348
285
434
391
354
348
354
358
365
368
384
401
416
425
411
372
343
334
338
346
348
351
365
365
358
361
363
366
293
471
420
367
365
370
365
375
381
393
411
426
435
421
377
345
335
336
337
341
344
346
355
351
351
351
354
321
409
400
381
356
360
366
365
374
384
397
416
428
426
393
355
333
334
331
336
336
348
352
353
352
347
359
364
296
478
402
368
360
363
373
380
393
399
414
427
440
431
392
363
350
347
348
355
365
375
368
364
363
367
360
324
420
403
361
365
366
368
373
380
396
418
429
429
409
364
341
338
339
339
338
346
351
344
345
349
351
306
449
390
367
348
352
357
357
360
371
390
404
419
419
382
347
327
324
326
329
336
349
348
343
343
348
343
283
436
394
361
353
362
367
372
386
404
421
432
439
429
388
356
353
356
358
365
373
385
373
368
382
370
345
407
427
396
365
367
371
371
377
384
406
418
427
431
397
358
336
334
334
340
340
349
358
349
350
353
348
310
474
386
365
354
361
366
368
367
387
396
410
420
415
377
342
328
328
334
329
344
353
348
343
346
351
356
301
454
394
367
361
363
370
370
380
394
408
425
431
419
377
353
343
343
348
346
353
361
367
355
356
357
359
325
431
394
384
362
362
366
368
371
378
397
422
420
419
391
360
339
334
337
338
336
340
341
350
348
345
344
349
347
301
412
387
353
349
353
356
357
364
379
392
409
415
404
364
335
330
329
331
338
340
348
363
349
354
355
359
330
408
403
396
363
364
365
367
371
383
396
415
426
427
402
359
341
334
335
335
336
342
341
355
350
346
344
350
317
396
385
378
346
350
353
353
359
366
386
397
410
416
388
347
322
319
321
323
325
333
345
348
342
346
350
352
291
444
406
365
364
367
373
380
391
411
423
435
444
431
390
357
350
347
351
354
359
365
376
365
365
367
363
334
396
429
391
357
359
359
363
367
381
394
411
423
427
399
353
333
326
331
325
334
335
340
350
347
340
344
352
334
356
381
382
347
348
354
354
359
368
386
402
412
418
400
358
330
327
324
327
335
336
348
353
349
349
349
357
283
457
410
363
362
359
364
373
376
391
407
422
429
421
381
348
333
336
338
337
343
345
350
354
350
349
349
349
272
456
404
349
350
350
352
356
364
373
393
406
416
403
360
330
322
316
321
321
322
326
330
342
335
333
337
340
273
463
398
353
341
340
347
351
359
370
385
401
413
409
379
336
322
319
325
332
339
345
356
355
351
354
358
343
381
386
398
362
368
373
378
384
398
415
428
438
445
419
375
355
349
351
354
359
360
371
371
366
369
370
369
298
461
419
367
368
371
376
377
384
395
412
427
436
419
373
344
337
337
338
340
345
356
361
354
355
356
358
304
465
404
378
358
361
362
366
373
384
401
415
425
423
395
348
334
334
335
335
342
351
355
354
356
355
363
297
441
412
370
367
372
376
384
394
405
424
436
444
430
388
360
353
351
354
358
362
363
366
365
367
370
372
294
465
422
370
371
373
372
375
376
393
416
425
425
413
372
340
338
334
336
340
336
341
353
355
356
353
356
354
289
419
405
354
357
357
361
366
372
385
410
418
423
412
370
338
332
328
328
331
335
347
341
339
340
345
329
365
364
385
353
357
359
366
377
385
401
420
429
432
405
366
346
344
347
353
355
369
364
359
360
362
361
300
440
409
361
362
365
366
370
378
389
410
424
434
410
367
345
338
336
341
344
351
361
358
358
355
360
331
386
399
390
360
359
360
362
365
378
393
406
424
422
394
351
335
326
328
331
332
345
341
339
345
345
343
300
379
385
344
350
350
357
362
371
388
411
418
425
403
367
338
338
342
344
354
368
361
360
361
367
366
292
431
410
356
360
362
360
370
374
381
406
426
429
406
368
346
341
339
336
331
346
350
342
343
346
346
277
453
408
361
357
358
369
369
376
395
411
425
433
419
379
346
336
331
341
347
361
362
348
351
353
355
292
470
400
364
352
355
361
366
378
396
413
426
434
427
390
358
350
355
356
361
374
372
367
368
370
376
303
506
434
377
370
371
376
381
384
396
412
427
433
422
375
343
337
336
340
339
349
357
351
351
355
354
294
473
404
367
356
358
366
364
374
384
402
420
421
415
380
340
330
331
332
334
344
354
343
347
345
347
320
422
373
386
353
359
365
369
377
388
405
419
432
433
403
364
348
346
348
350
354
368
363
360
361
365
364
298
459
412
367
369
366
366
370
378
391
411
425
431
412
369
343
335
340
337
340
346
358
353
354
353
357
351
306
402
394
356
362
364
363
369
375
393
406
422
427
401
359
333
324
327
328
335
343
349
343
345
347
349
306
436
367
372
352
351
356
358
366
379
393
411
420
420
386
350
338
336
345
344
352
363
362
357
355
360
364
292
485
417
369
366
366
371
374
378
390
407
421
424
417
372
344
333
333
336
336
341
352
357
350
352
356
356
281
464
413
362
361
364
369
369
377
388
405
417
426
416
373
342
331
333
332
334
339
352
354
345
350
351
343
320
375
391
351
352
360
359
360
372
392
403
413
420
398
357
338
333
337
339
344
359
357
347
351
357
357
298
437
404
364
365
371
371
381
388
400
418
429
434
417
373
346
341
344
344
349
357
363
358
355
355
358
312
450
411
381
360
362
365
367
375
382
401
420
430
430
387
349
336
335
340
340
340
355
348
346
351
352
342
339
368
388
352
355
359
361
365
373
393
407
416
419
390
350
331
325
326
329
337
349
344
343
340
345
342
313
373
388
350
352
358
368
369
385
399
416
425
429
411
367
345
340
341
346
355
363
357
352
358
354
361
287
455
412
365
369
365
371
372
383
391
416
428
435
415
370
345
339
337
344
342
354
355
348
352
355
362
284
465
409
365
358
362
363
365
371
388
402
419
431
408
366
337
333
327
332
336
346
340
336
339
345
324
378
351
371
341
350
353
353
362
372
386
404
417
412
380
348
328
333
335
346
357
349
350
350
355
344
378
387
398
364
368
370
377
385
391
407
425
438
433
398
352
347
341
340
345
358
353
352
355
359
363
290
456
406
362
362
365
363
367
375
392
408
425
433
402
363
341
329
331
339
342
353
347
344
349
352
310
433
383
377
353
358
358
369
369
386
400
417
427
414
377
343
327
326
328
334
346
345
343
340
351
351
286
447
399
364
356
358
366
377
381
398
411
428
436
417
377
350
343
342
349
351
365
355
354
355
360
346
354
397
391
357
360
364
370
372
381
400
417
430
434
393
359
335
337
336
341
341
346
358
350
351
355
357
287
464
413
363
356
362
360
364
372
387
397
413
424
407
369
339
325
326
327
330
347
337
336
334
336
312
427
352
371
340
345
354
358
368
386
396
418
429
431
393
359
344
341
347
353
361
370
363
365
365
367
309
488
431
390
372
374
376
383
379
398
412
428
444
433
381
351
340
341
341
347
357
362
356
365
364
358
294
424
406
358
358
360
363
363
375
387
406
413
425
398
355
333
323
320
321
331
337
330
336
337
340
314
378
350
368
339
343
347
352
359
368
388
403
418
413
387
348
334
337
336
341
350
359
352
352
359
366
294
480
426
377
363
369
376
383
383
393
412
427
432
427
385
353
338
330
332
337
343
354
348
349
348
347
320
392
370
379
348
349
362
357
368
377
396
410
423
422
393
357
337
338
338
343
352
363
357
355
360
360
342
376
402
396
365
367
379
377
378
394
403
421
429
433
402
365
342
341
341
337
345
353
355
349
350
355
353
298
414
396
352
361
356
368
365
371
389
399
414
419
401
357
333
326
323
322
329
336
345
340
340
341
340
314
386
364
368
343
346
356
350
361
369
387
398
411
411
385
350
327
329
323
332
342
350
346
343
350
351
346
343
377
393
359
361
367
376
376
388
404
424
430
434
412
368
349
343
348
349
356
364
371
365
365
369
371
315
464
423
382
367
371
372
374
385
390
402
425
432
427
391
354
344
339
338
340
342
350
352
350
348
349
350
287
469
401
362
358
355
361
361
370
380
398
413
414
409
382
345
327
329
330
328
339
349
355
344
344
353
362
290
467
412
372
373
374
370
376
387
406
418
435
436
429
394
363
352
352
349
360
364
369
368
366
362
369
363
338
418
404
360
369
373
378
378
388
404
416
430
433
401
363
339
336
337
337
340
351
352
351
354
356
354
288
445
395
356
356
357
358
361
374
383
397
414
422
408
369
338
328
331
328
334
341
353
340
342
342
344
297
464
387
370
355
361
360
367
381
387
405
425
429
422
392
357
346
347
351
351
360
368
364
358
358
369
300
487
422
380
367
371
376
377
380
395
411
422
434
422
383
350
339
339
336
341
345
356
354
356
355
361
318
427
405
381
359
362
371
368
371
381
394
412
418
418
381
349
332
324
335
327
332
334
348
344
346
342
346
332
357
369
379
350
354
353
354
363
377
390
407
411
415
388
353
337
330
334
334
341
352
353
351
348
357
358
294
468
416
371
364
369
377
382
392
404
417
436
437
422
383
355
352
346
349
349
354
369
358
362
364
362
356
320
412
395
364
366
367
368
371
386
397
419
426
429
396
361
343
337
332
336
335
350
352
340
347
352
347
281
448
391
351
351
352
359
360
366
382
397
406
415
400
368
335
328
326
329
329
346
345
347
340
352
356
292
427
398
363
356
355
360
372
378
400
412
428
432
413
378
353
347
347
350
351
363
362
359
365
364
367
291
481
422
372
373
367
371
375
386
397
418
423
431
417
372
351
336
343
341
340
349
352
354
355
357
361
291
467
406
367
356
354
364
360
373
383
406
416
420
406
374
340
337
325
328
335
343
348
340
343
348
349
322
412
370
381
353
360
362
363
374
389
407
425
427
430
396
359
353
345
350
352
356
371
365
360
366
367
363
294
479
416
369
373
371
369
380
386
397
418
430
438
413
378
350
342
344
339
347
349
355
356
353
352
353
323
411
389
378
351
348
351
355
359
370
390
406
412
408
372
336
324
316
322
325
335
344
331
333
334
337
290
440
367
365
349
351
349
364
367
388
399
416
426
419
384
358
344
350
346
354
364
368
361
367
362
368
306
486
430
380
369
374
378
378
384
396
409
426
436
423
380
352
344
341
339
344
351
355
346
348
349
352
287
470
399
359
347
350
354
355
359
374
388
408
412
399
359
325
327
323
331
324
347
351
337
339
347
337
292
380
380
342
350
355
357
364
380
398
414
427
428
400
361
347
349
349
351
365
368
355
366
368
363
299
476
420
372
367
380
373
371
386
397
418
435
436
418
374
351
344
342
348
349
364
353
350
360
364
326
416
405
389
369
366
368
371
378
381
402
417
424
410
377
348
328
331
331
336
352
339
339
337
341
332
301
365
375
340
341
346
350
358
368
384
397
408
410
374
346
326
322
324
342
352
340
339
346
351
343
330
384
398
362
367
368
371
375
394
411
419
434
431
388
360
346
344
343
346
355
356
355
357
358
356
316
403
401
361
358
365
373
371
384
401
423
428
423
386
352
336
329
330
336
333
347
341
345
341
349
314
404
376
374
346
353
346
354
363
373
388
407
419
405
376
341
328
325
327
332
346
350
337
341
348
338
335
371
397
362
362
379
377
388
404
419
444
449
452
408
381
367
358
361
370
383
378
376
381
376
369
362
412
407
379
375
379
387
381
394
410
423
431
435
373
369
352
341
350
349
359
336
336
323
325
309
317
335
338
326
331
333
340
348
362
381
395
401
391
356
327
311
308
319
336
355
342
342
346
348
329
382
367
380
355
361
372
377
381
388
407
414
408
402
363
336
327
330
340
347
351
356
363
364
367
367
312
443
408
374
379
390
391
398
401
420
434
436
449
430
392
378
376
373
381
383
380
372
367
361
367
313
446
397
366
365
367
363
368
377
385
393
402
407
386
351
332
322
329
343
358
352
343
344
347
359
299
431
400
366
366
370
372
375
384
404
419
429
429
402
370
348
344
340
352
362
355
353
355
359
355
296
447
398
358
363
362
364
366
375
389
408
415
418
399
356
341
330
333
334
338
347
345
340
341
341
335
323
364
370
342
344
345
346
351
356
376
390
396
396
376
347
329
329
331
344
362
363
354
356
357
360
292
480
406
364
358
362
358
365
372
384
406
419
428
411
372
349
343
338
344
348
357
355
350
350
353
356
280
471
399
358
357
360
362
368
374
389
405
413
421
403
369
341
332
334
336
343
356
357
350
351
352
350
284
440
390
350
349
349
353
355
361
378
390
399
401
388
353
332
322
322
324
334
350
345
335
340
343
331
321
355
370
340
343
358
349
352
365
380
399
409
413
393
355
337
340
339
346
350
360
351
346
347
349
301
435
398
374
355
349
359
364
372
382
408
417
426
428
384
355
348
341
341
345
348
364
355
352
359
359
314
440
430
374
358
365
369
377
375
391
404
419
428
423
390
355
345
343
346
346
352
368
367
352
357
360
344
351
393
397
362
367
371
377
375
394
406
416
425
421
395
364
342
344
347
342
349
362
358
357
357
360
339
375
363
392
357
355
361
358
368
381
395
404
409
411
388
356
341
340
332
344
351
354
345
349
349
346
296
475
377
361
357
356
357
364
368
384
397
410
409
404
379
355
344
346
354
359
369
365
359
360
366
359
347
392
408
372
372
379
378
386
397
405
419
428
432
404
365
356
357
352
357
367
367
357
356
362
361
309
478
412
378
365
365
364
366
368
386
401
414
413
404
372
344
335
335
335
341
350
341
350
345
348
344
308
386
386
344
351
349
355
359
377
389
409
412
412
384
355
336
334
342
351
352
346
352
347
354
335
356
357
382
347
355
362
368
364
380
391
410
411
407
377
352
335
331
337
356
353
338
347
341
343
294
472
381
374
361
360
371
373
383
394
422
426
427
413
381
356
350
355
361
384
373
364
368
370
377
309
478
411
378
378
384
381
388
398
408
428
439
434
415
380
356
354
354
361
361
373
368
359
363
365
360
317
429
405
370
366
366
371
380
384
397
425
423
424
397
358
342
340
343
343
342
350
360
348
354
347
350
306
458
379
368
354
352
361
354
367
378
395
411
410
402
373
342
331
330
335
334
343
357
358
339
348
351
342
319
386
385
355
360
364
369
377
384
403
412
423
423
395
368
347
350
354
352
362
377
373
364
366
371
374
303
488
415
371
368
373
377
374
384
402
419
426
429
404
365
346
341
343
346
347
349
355
357
355
353
359
363
291
465
404
358
357
361
359
360
372
379
401
404
414
391
346
328
318
323
323
332
332
336
339
342
333
344
343
339
314
379
384
341
345
353
354
361
374
396
405
419
419
401
363
348
349
351
355
354
360
366
367
361
368
372
365
355
409
411
371
369
380
379
386
395
408
428
436
428
399
363
350
342
347
345
348
350
350
359
350
349
352
353
289
484
405
363
358
357
360
368
377
396
404
426
423
412
374
341
335
327
328
328
332
338
340
339
332
340
337
338
286
384
373
337
338
336
338
349
357
371
390
394
394
370
336
319
312
316
318
330
339
348
353
353
355
355
359
304
485
410
388
369
369
378
381
391
403
418
438
435
424
392
355
346
350
354
353
361
367
372
370
363
366
367
329
418
407
390
366
360
362
366
367
379
397
420
409
408
369
341
328
329
325
326
338
330
343
343
335
333
349
341
281
449
375
343
340
339
341
341
354
371
387
398
407
396
361
342
338
346
350
357
368
368
374
368
368
375
376
311
476
431
398
381
394
393
391
407
423
439
452
448
425
382
361
357
361
363
358
363
379
382
370
370
378
373
298
496
438
372
371
372
371
370
381
392
415
421
432
411
366
339
334
329
331
333
331
337
345
342
339
334
339
330
310
368
369
339
342
336
343
350
358
372
394
408
400
366
340
319
310
318
319
326
328
338
342
334
339
341
346
282
482
407
372
357
357
362
370
380
394
411
426
430
418
384
357
351
348
355
358
364
359
368
371
368
366
369
371
310
478
436
381
365
371
371
380
383
397
419
438
439
433
393
362
351
348
352
355
354
359
365
374
369
369
370
363
356
343
416
407
368
369
368
373
378
395
411
419
434
432
399
359
339
338
340
340
339
350
350
349
342
348
353
355
350
356
297
461
407
370
355
347
351
356
357
365
391
397
404
407
367
337
329
322
325
319
327
328
338
338
341
344
354
361
322
421
424
397
358
360
367
377
383
396
411
434
437
431
393
363
352
348
349
357
358
353
367
368
363
365
374
366
367
286
515
427
371
371
368
371
377
387
400
424
438
446
429
384
357
351
355
353
363
360
367
361
365
374
368
373
370
372
325
444
431
396
368
372
373
373
385
392
403
422
430
419
386
353
341
337
333
340
339
344
342
347
355
349
351
355
354
297
466
403
375
353
350
359
358
369
381
397
413
415
410
375
342
332
322
334
329
343
343
348
356
348
363
353
367
312
477
411
391
359
368
375
375
383
399
413
431
440
426
390
360
353
349
353
355
357
361
368
368
364
366
373
376
310
495
427
378
377
375
379
384
391
404
428
430
430
415
374
349
342
346
347
350
351
352
352
364
357
354
359
354
321
424
403
378
351
352
355
361
364
376
393
406
416
409
370
333
323
325
319
326
323
328
335
340
339
341
342
342
343
276
461
384
354
342
343
347
353
363
377
397
405
413
397
367
341
340
335
345
347
352
362
368
372
364
365
365
362
326
422
405
370
372
376
380
380
398
414
427
441
436
403
365
356
351
345
351
354
359
362
368
373
365
361
365
366
301
484
413
367
360
361
366
368
370
387
403
410
420
395
356
330
324
322
328
330
328
336
335
347
339
342
342
347
345
294
418
385
355
349
349
355
353
369
370
388
404
407
378
342
320
359
306
322
330
336
345
352
363
358
360
363
365
294
495
430
368
369
371
375
375
389
409
423
432
443
421
376
354
345
350
346
348
343
346
360
369
365
350
358
346
334
331
432
368
333
323
339
344
353
358
376
396
404
404
376
339
344
339
318
325
324
328
340
341
353
363
352
360
361
358
374
363
402
368
376
378
378
383
392
412
422
440
446
418
382
364
356
350
344
340
341
336
345
354
350
354
361
357
280
496
412
350
337
341
341
342
358
370
391
410
419
400
354
332
328
325
331
331
332
338
352
341
343
337
347
338
336
387
371
332
337
329
323
334
343
360
378
385
379
347
314
294
302
308
320
329
326
337
338
338
337
336
329
323
281
396
377
346
326
337
342
352
364
384
401
416
416
383
343
336
333
345
353
363
364
375
392
397
381
382
372
380
323
495
436
372
351
357
357
364
370
388
415
428
431
419
383
356
344
348
342
350
352
356
368
374
374
378
380
378
352
419
413
384
382
382
386
389
398
409
426
434
433
405
369
351
346
345
349
351
352
357
353
351
351
354
358
305
479
388
371
355
361
360
366
373
384
4
