376
325
297
293
294
295
302
304
304
314
321
326
330
328
339
300
344
478
366
339
346
350
351
361
371
390
406
427
418
371
337
335
345
333
340
344
347
350
349
346
347
350
346
350
343
275
399
474
348
336
336
335
339
342
350
366
384
397
390
343
309
304
299
302
303
306
312
316
318
315
320
328
330
332
334
336
222
450
425
331
332
335
338
344
353
366
382
396
406
385
335
312
311
310
309
312
314
314
316
318
322
322
324
326
229
431
432
322
317
318
321
326
333
345
361
376
386
367
313
289
290
289
288
293
295
297
304
310
310
315
318
275
376
399
355
322
328
327
342
345
356
374
395
404
400
354
317
315
318
321
324
322
326
332
336
336
334
339
276
404
461
357
346
347
349
351
357
369
385
400
411
401
351
317
313
312
310
313
313
314
319
328
329
330
336
290
370
429
359
334
336
338
340
350
359
377
394
406
400
348
314
310
307
312
312
316
313
316
319
324
325
326
330
279
383
413
350
325
333
334
335
345
353
369
386
398
391
353
320
305
299
304
310
315
319
324
324
324
326
332
287
368
410
364
335
339
341
343
349
361
376
389
403
399
352
316
309
309
308
311
312
312
313
319
323
326
329
334
270
392
436
343
324
326
327
331
340
360
373
391
395
393
352
319
307
308
316
321
326
323
336
338
347
349
353
352
296
464
447
375
362
376
374
389
384
403
405
421
432
422
378
362
350
360
350
348
350
350
353
354
337
341
347
207
602
423
320
288
316
314
318
324
335
352
365
381
360
309
286
284
277
279
276
281
279
284
285
286
287
192
449
408
282
279
282
285
291
298
312
330
348
362
347
292
269
269
268
270
272
277
282
290
291
295
299
299
183
483
358
305
308
313
314
328
333
351
372
388
396
360
315
309
310
309
307
312
317
320
333
334
340
346
339
260
427
408
347
351
358
360
364
383
392
407
420
429
390
340
335
330
330
329
332
335
341
343
344
349
349
255
407
423
345
348
348
350
357
364
374
391
402
406
371
325
311
308
309
312
311
315
320
323
321
324
326
250
399
450
337
321
323
324
326
331
345
362
380
391
380
335
307
302
304
305
307
308
314
323
325
330
332
335
229
414
426
332
334
334
338
344
352
366
382
393
402
375
326
309
305
306
309
310
310
316
320
322
325
327
331
230
431
440
331
328
330
330
336
344
353
370
386
399
374
326
308
307
307
310
312
317
317
321
325
331
333
336
339
292
387
439
367
340
342
346
349
353
369
388
404
414
410
363
330
321
320
324
323
326
327
332
336
337
337
338
341
254
441
437
344
340
341
343
349
354
366
381
395
405
382
331
305
304
303
305
307
310
308
313
316
319
320
321
323
257
397
441
341
324
326
327
330
336
348
362
380
393
383
333
305
301
302
303
306
311
314
316
316
317
324
324
327
328
332
223
438
418
326
325
326
328
331
335
346
365
383
394
370
318
293
289
290
289
293
294
297
302
300
297
306
308
313
319
322
213
410
403
319
324
325
330
338
350
361
382
398
409
392
345
319
315
315
312
311
315
316
318
324
328
336
342
344
349
284
455
435
364
352
357
357
358
362
368
384
396
406
393
345
310
308
308
309
309
312
317
318
323
322
325
327
330
332
260
418
432
337
320
321
322
326
331
342
359
375
389
376
328
298
294
295
298
301
305
309
314
318
316
317
328
326
327
329
329
227
442
419
327
330
332
336
341
348
362
379
398
410
390
339
316
318
316
321
325
329
335
336
340
339
338
341
347
349
352
352
307
387
454
369
348
348
349
353
357
368
384
400
417
415
372
332
323
324
322
322
325
329
332
333
331
333
343
340
342
342
340
251
415
401
334
336
338
339
344
351
361
378
394
403
373
323
309
306
303
306
307
310
314
316
314
314
314
313
318
318
319
323
282
345
397
347
316
317
320
321
329
338
354
373
387
394
358
316
304
304
304
307
311
314
320
323
321
323
324
328
326
331
332
289
365
425
363
337
336
342
343
350
360
376
393
408
413
371
322
314
315
315
316
323
320
320
320
318
313
314
320
331
336
343
349
284
417
457
358
335
336
339
343
349
358
374
390
405
406
363
322
314
315
316
316
321
322
321
328
326
320
323
333
333
337
337
336
233
440
406
328
329
332
333
337
342
352
368
383
395
377
327
303
301
305
308
309
310
314
316
319
320
320
316
315
321
322
324
326
330
228
430
411
333
334
335
339
345
349
357
371
386
396
386
338
309
306
309
311
312
316
318
320
323
323
321
321
328
328
327
328
306
310
419
372
335
338
341
342
346
352
363
380
389
397
365
319
309
308
311
314
316
321
320
323
321
319
319
323
322
324
327
303
325
406
368
333
338
342
344
348
357
368
385
398
409
378
332
321
321
321
321
325
327
330
322
328
330
339
343
351
357
317
408
422
386
348
340
325
320
339
354
377
400
416
420
380
333
310
303
299
297
303
315
328
345
355
373
381
383
381
362
276
418
385
318
321
321
327
334
344
359
376
390
400
370
319
299
298
298
298
299
301
300
302
301
304
313
313
315
317
316
212
412
389
303
305
307
312
317
325
336
353
368
383
370
323
296
294
296
298
300
303
303
307
309
309
314
325
326
332
338
335
262
401
400
339
344
345
348
356
362
375
392
408
417
398
354
329
326
326
328
328
328
328
328
331
339
341
346
347
350
270
465
449
359
352
352
352
355
360
370
384
398
408
399
350
317
315
317
318
319
320
322
322
318
320
326
331
332
336
332
262
400
386
328
333
335
339
347
353
367
387
402
411
383
332
315
313
313
315
315
321
319
321
329
328
330
333
336
255
432
415
343
332
332
338
340
346
356
378
390
404
384
340
311
307
305
307
312
311
319
314
318
331
327
331
334
338
320
356
356
378
344
343
344
346
354
363
380
396
416
416
379
332
319
316
314
323
326
322
321
323
319
317
310
303
314
318
316
325
328
261
401
463
342
328
336
329
338
350
352
370
395
406
410
364
319
308
308
316
317
317
326
337
335
338
338
343
343
342
348
328
289
401
386
342
345
345
348
353
360
372
391
407
413
380
325
305
297
305
293
298
302
306
307
308
305
310
319
321
322
319
325
248
422
453
324
308
315
325
328
337
351
362
380
402
403
354
309
300
313
301
301
308
305
307
313
318
316
315
319
322
322
323
327
320
225
479
378
320
323
327
331
335
341
356
382
391
405
386
335
311
307
310
307
311
313
315
318
320
317
316
319
327
333
337
342
333
318
412
395
353
357
358
364
368
379
387
406
422
432
410
357
334
328
327
327
331
333
338
339
337
340
341
341
343
343
345
253
459
430
341
333
335
336
338
345
354
369
388
400
396
348
303
295
292
292
295
297
300
300
305
307
310
311
314
316
232
421
433
323
315
317
322
326
334
346
363
384
402
402
355
313
304
305
305
310
314
317
322
324
322
323
329
336
339
341
343
273
413
465
354
342
343
346
352
357
364
380
400
413
419
381
339
319
316
318
317
320
321
323
327
328
338
338
339
343
347
257
423
424
341
343
342
345
346
355
365
383
399
413
404
352
311
302
301
300
300
301
302
303
307
310
315
316
315
319
292
307
423
352
319
323
325
332
337
345
358
378
396
404
374
324
305
307
307
310
313
317
321
325
326
328
331
338
339
339
343
309
341
449
370
338
341
343
346
351
359
374
393
407
415
388
338
316
313
313
314
316
317
319
321
324
319
330
331
332
333
333
284
382
413
356
332
335
338
344
350
359
376
394
407
414
386
336
313
310
308
309
314
318
317
322
327
333
335
338
341
304
362
432
378
342
345
348
353
357
366
378
392
408
413
380
323
307
304
303
302
303
307
307
310
315
322
324
326
324
278
356
437
343
322
325
331
334
339
348
363
380
397
404
363
314
300
298
300
301
305
307
311
313
316
326
330
330
334
334
239
412
421
329
335
336
342
344
353
365
382
401
415
414
366
328
316
316
318
318
317
320
321
320
329
334
337
337
342
272
435
430
353
332
335
339
345
352
361
375
391
406
406
360
320
308
304
305
308
309
309
306
310
316
316
319
323
328
240
423
445
330
328
329
333
339
341
351
365
385
398
398
354
308
315
313
314
317
315
316
319
323
325
330
329
332
262
406
402
327
316
320
324
327
334
344
360
382
393
395
354
314
303
305
306
307
311
314
317
319
327
329
329
332
337
253
435
439
344
343
347
350
357
365
373
389
408
417
413
368
330
322
319
319
321
322
323
328
319
321
327
327
329
328
328
263
387
429
333
318
319
320
320
326
332
346
364
379
384
352
305
293
294
294
294
299
306
308
310
308
317
321
322
325
326
323
240
373
379
313
317
319
326
330
339
352
366
382
396
383
339
309
303
310
311
319
324
329
331
332
336
345
350
352
355
357
257
463
445
352
352
352
356
359
366
372
391
407
420
415
366
325
321
325
314
313
312
311
313
306
304
306
304
302
300
294
263
290
381
321
281
283
283
287
294
308
330
350
376
385
362
316
299
298
301
305
309
312
314
316
328
334
340
346
354
356
290
440
478
375
357
363
363
366
371
378
392
409
421
423
383
339
329
327
326
323
324
325
327
325
328
332
336
338
340
344
296
392
450
362
341
342
343
347
351
361
374
393
406
408
379
326
317
307
303
306
302
306
307
310
309
310
318
322
322
329
335
253
427
424
338
333
333
337
342
349
359
375
392
406
412
370
326
313
310
310
311
313
315
315
318
322
328
329
332
334
270
396
454
344
328
327
328
329
334
343
357
375
388
393
355
309
299
299
296
296
298
300
303
304
304
306
311
318
318
319
323
306
285
414
356
318
321
323
328
332
341
354
373
391
405
387
339
313
312
308
313
317
317
318
319
314
318
318
322
325
326
329
334
265
431
404
348
341
342
351
354
360
372
385
401
409
412
375
330
313
309
308
309
311
313
311
315
315
323
324
328
331
300
323
448
354
322
325
327
332
338
349
362
380
395
404
373
321
303
301
300
299
300
304
304
307
313
318
319
323
327
261
394
444
337
327
328
330
335
342
353
366
388
405
410
371
330
319
318
317
317
319
318
322
332
339
339
342
347
299
385
441
361
340
343
346
350
355
365
380
396
407
415
380
335
323
320
319
319
319
320
319
320
329
330
334
338
340
254
423
411
341
340
343
347
350
355
366
380
397
413
396
351
323
313
310
311
310
309
313
319
320
323
324
324
323
262
351
380
319
326
328
337
331
348
355
371
386
398
385
330
309
289
300
306
310
298
302
313
311
310
316
315
264
422
355
313
302
312
322
336
353
367
378
390
401
395
350
307
297
295
295
301
304
312
315
321
321
326
330
320
257
472
367
326
329
330
332
337
346
359
377
393
406
380
330
315
314
315
315
314
320
325
328
329
331
336
262
421
444
340
333
335
336
342
348
358
375
392
405
403
357
320
313
312
316
322
324
323
326
334
339
341
345
346
280
423
445
353
343
344
345
348
356
366
380
398
409
412
374
330
318
316
316
317
319
320
325
329
331
332
335
337
264
420
424
341
333
334
336
339
342
351
367
382
392
392
350
308
300
297
300
301
303
306
305
311
318
322
325
327
325
287
366
400
349
325
326
325
328
337
348
360
379
391
397
371
322
305
300
302
308
308
310
315
322
325
328
332
337
264
432
439
350
339
340
342
347
351
361
377
393
405
403
361
320
311
311
315
318
321
322
323
320
320
329
331
330
333
333
235
426
403
327
329
330
331
335
342
353
369
385
395
387
342
308
302
304
305
308
313
316
319
317
318
320
329
329
331
335
326
280
400
382
332
335
337
340
345
354
366
383
399
406
391
344
317
315
316
318
323
327
330
333
335
336
337
334
338
344
344
344
349
337
290
425
388
341
344
344
346
349
355
366
379
392
400
389
340
306
301
300
301
302
301
304
306
307
310
311
307
307
312
313
315
316
316
253
395
422
330
317
320
323
324
328
336
350
366
380
386
360
312
292
294
295
299
301
307
312
315
320
322
325
325
325
325
327
333
331
328
333
284
384
438
354
336
338
338
340
341
347
358
374
388
397
378
329
306
301
302
306
308
313
316
322
324
326
327
328
330
329
331
336
336
337
340
345
263
455
449
352
347
349
348
352
356
366
380
396
409
416
389
343
323
323
325
325
327
331
331
333
336
335
336
337
330
332
340
340
344
346
346
247
445
421
341
338
339
341
346
352
364
380
396
405
404
364
321
307
306
305
306
308
311
317
319
319
323
322
319
318
322
323
322
325
327
246
420
423
330
322
323
323
324
327
335
350
368
380
389
364
313
293
291
293
295
299
303
306
307
310
310
313
311
311
316
322
323
325
327
263
406
429
345
332
334
339
340
349
358
371
389
404
413
393
343
318
314
311
311
315
315
318
323
322
325
320
321
328
328
327
334
329
260
379
390
326
336
334
334
338
348
359
369
388
400
398
357
316
308
306
305
307
310
313
314
316
317
321
321
324
326
298
333
412
363
328
333
334
339
345
358
370
389
402
412
393
340
317
314
314
319
319
322
325
328
338
334
335
338
338
223
496
399
329
332
334
339
344
353
364
381
400
415
407
354
318
316
315
317
317
322
319
325
326
326
326
326
325
303
250
479
341
316
318
322
324
331
336
350
372
388
402
383
330
304
305
305
308
310
314
315
314
314
317
325
326
327
329
328
216
458
392
319
322
320
324
328
329
341
356
371
385
389
349
313
305
307
309
314
317
325
328
330
329
332
332
335
338
339
341
276
384
460
338
327
329
329
337
339
347
356
371
388
397
383
335
313
316
305
316
310
316
315
321
319
323
323
325
325
324
328
327
331
251
390
398
335
339
343
340
346
355
361
368
384
392
401
371
330
322
319
324
327
328
330
333
331
335
341
337
336
342
333
231
508
361
321
320
325
327
335
337
348
359
374
382
373
325
301
300
301
303
307
313
316
325
327
332
334
332
338
267
422
456
338
329
325
327
335
341
349
361
376
386
395
370
322
307
305
305
308
314
319
323
327
332
332
335
340
327
261
447
376
334
335
337
340
346
353
360
373
383
391
384
336
309
306
309
313
318
320
323
325
332
332
333
333
324
302
364
386
334
336
338
342
349
353
363
383
391
402
395
343
317
311
313
315
312
321
326
328
329
331
333
300
366
386
361
332
335
337
342
341
351
361
374
386
391
373
327
311
311
311
310
314
314
319
324
326
328
328
320
274
352
377
331
330
336
338
343
348
360
372
384
394
385
338
312
308
310
309
312
319
319
319
320
324
315
294
345
371
319
321
325
330
339
346
360
373
384
395
376
328
311
310
312
314
315
319
326
327
327
330
335
228
436
405
327
332
334
338
343
350
362
374
384
393
390
345
314
308
310
314
316
320
325
326
325
328
331
254
418
414
335
330
331
334
336
343
354
368
381
389
386
343
305
294
295
294
293
300
305
305
309
313
317
242
394
382
319
315
319
323
329
340
350
365
378
391
389
352
310
304
303
306
306
315
320
321
326
331
334
258
418
398
337
333
336
340
348
356
366
381
396
407
405
364
331
327
327
329
326
334
340
338
338
339
341
290
403
399
358
338
340
341
346
353
361
372
386
396
397
361
319
306
303
303
305
304
309
311
309
313
316
318
241
403
385
322
317
321
326
331
339
350
365
379
389
383
341
307
300
300
302
302
308
315
314
316
318
321
267
378
391
338
319
322
325
330
337
346
360
375
387
389
352
312
301
300
302
304
306
313
316
319
322
327
329
250
389
390
329
334
337
342
350
358
373
391
404
416
395
349
324
323
326
329
329
335
341
343
342
345
347
319
359
397
380
348
350
351
355
361
367
381
396
410
411
379
335
315
314
317
315
314
318
323
322
323
328
331
251
389
391
325
326
330
333
339
347
358
375
389
398
385
337
307
301
303
303
304
305
312
317
318
320
321
324
229
408
393
320
322
323
327
332
337
350
367
382
394
382
333
306
302
302
302
303
307
314
317
319
321
325
310
292
367
365
324
325
330
335
341
349
361
379
393
399
367
322
304
304
304
305
308
308
315
322
323
326
327
328
242
402
398
329
330
333
338
342
349
358
375
389
398
384
337
308
304
302
303
307
310
309
314
318
322
324
324
328
256
412
415
337
327
330
332
336
343
352
366
383
396
398
362
318
307
306
308
309
311
312
316
319
324
326
331
330
297
367
369
365
331
335
339
341
347
356
369
387
400
404
375
329
311
308
309
311
315
319
324
328
328
330
331
330
252
404
393
332
334
336
338
345
353
365
380
395
407
386
336
310
308
307
309
311
312
319
323
325
328
330
321
264
385
373
324
327
329
333
338
346
357
374
389
398
370
320
303
302
303
305
306
308
309
316
322
321
324
327
322
250
381
383
325
329
330
337
341
350
364
382
400
409
389
343
315
312
314
312
316
318
321
328
327
327
329
331
317
327
359
374
334
339
340
344
351
360
373
390
404
409
379
328
308
305
304
306
310
313
317
324
320
322
323
322
243
409
417
324
317
319
324
329
335
345
359
377
392
389
345
307
298
298
299
300
301
304
309
315
314
317
318
319
242
414
407
323
319
321
325
331
338
350
366
383
396
394
351
313
303
304
303
304
304
308
310
318
321
321
324
327
287
368
385
351
326
326
335
342
348
360
373
391
408
412
379
336
317
313
314
315
315
320
324
330
326
329
332
334
278
414
404
356
333
335
338
342
349
359
374
389
403
403
364
320
307
305
304
306
306
309
311
314
320
319
321
324
322
240
405
378
321
326
328
330
337
343
354
372
388
400
380
328
306
304
306
305
309
312
312
316
322
323
326
325
326
239
393
387
322
324
325
331
335
342
354
370
386
397
380
332
303
298
300
299
301
302
306
312
315
316
317
318
308
277
346
365
317
322
325
331
339
351
364
385
401
412
386
336
313
313
310
313
318
323
324
333
334
331
333
340
322
313
411
372
332
332
332
338
339
349
360
383
402
412
376
327
312
314
314
316
312
320
323
324
332
328
330
331
333
232
451
424
332
330
333
336
339
345
356
370
390
405
398
350
314
309
310
311
319
322
322
326
336
339
340
343
345
244
443
418
344
349
347
352
358
363
373
388
404
415
397
345
316
311
310
311
312
313
317
320
326
328
332
333
267
408
414
339
329
334
331
335
341
347
360
376
389
386
346
306
299
301
302
302
307
311
315
320
319
318
322
288
368
359
355
325
329
331
336
343
353
370
382
395
400
365
321
305
305
304
307
309
316
319
320
324
323
328
281
381
394
350
328
332
337
343
350
358
372
387
401
407
370
328
320
319
322
325
332
331
332
335
335
337
341
341
263
434
433
344
337
337
341
345
352
359
374
383
395
391
351
313
309
307
305
312
313
313
325
330
327
330
328
305
311
390
357
323
322
334
333
332
347
364
381
399
405
373
329
311
310
305
303
302
304
306
315
319
326
332
337
237
436
396
328
329
329
327
335
344
354
370
388
400
387
340
315
313
312
314
312
319
322
323
323
321
324
271
392
391
346
333
338
339
343
349
354
369
384
391
390
348
305
295
295
297
298
299
308
309
310
312
315
317
240
384
382
321
321
323
324
330
338
349
367
380
394
383
341
314
306
306
307
310
315
319
325
324
329
330
328
257
386
384
323
328
330
335
342
351
362
380
393
400
379
329
306
303
304
304
304
310
316
320
323
325
329
293
348
410
359
334
337
340
348
354
369
384
389
457
403
357
332
330
318
317
320
317
327
324
337
308
320
319
305
307
362
381
316
334
350
346
339
352
355
372
387
398
364
318
303
298
299
299
295
304
308
316
322
327
331
299
345
401
350
317
318
323
328
336
347
363
381
396
398
359
322
309
304
302
301
305
309
311
313
314
313
315
245
401
397
331
331
337
342
349
358
373
389
405
421
412
366
330
325
326
327
329
332
340
342
345
344
348
347
240
516
443
340
337
338
339
342
346
356
372
392
408
399
346
314
308
309
311
309
317
321
327
331
332
335
268
401
480
344
334
338
341
346
355
366
376
398
409
408
359
320
315
322
315
304
331
311
312
317
318
316
322
239
416
435
338
327
330
329
334
338
350
364
376
391
381
333
297
291
291
294
299
304
309
309
313
318
320
204
462
401
311
310
307
309
315
324
342
360
375
389
378
329
306
304
305
308
311
317
321
325
324
328
331
284
355
485
348
332
334
339
344
350
359
373
389
402
409
373
332
323
317
323
321
328
331
333
335
334
337
303
325
460
360
331
330
330
334
341
352
368
384
397
406
368
323
312
307
309
310
309
312
315
316
316
320
323
209
477
389
328
330
332
335
343
349
360
371
387
395
378
328
309
298
302
300
302
305
304
310
309
311
314
225
427
434
323
318
316
318
322
332
336
354
355
385
386
333
301
287
293
297
308
323
309
333
312
296
289
226
287
401
341
302
333
320
360
352
367
384
396
414
428
383
341
335
337
322
326
319
325
317
316
321
316
241
343
410
334
342
358
357
366
378
391
400
412
423
399
345
320
316
309
303
297
297
304
315
323
336
267
449
463
365
343
343
342
339
338
341
346
357
373
377
338
306
308
313
316
321
324
326
325
325
322
320
197
428
381
309
313
317
327
329
340
349
363
377
386
357
307
290
289
293
293
301
303
309
312
312
318
205
439
429
321
318
321
326
333
340
350
362
379
388
372
322
297
295
295
301
308
311
315
317
324
324
255
417
430
340
322
324
326
331
338
348
362
376
390
384
338
305
300
303
304
308
315
318
317
324
329
326
263
370
386
327
334
337
340
345
353
365
381
393
401
366
321
309
311
313
315
321
326
328
326
330
331
287
366
435
359
330
334
340
346
353
361
374
388
398
391
341
302
300
303
305
311
317
325
325
325
331
328
225
457
385
325
329
330
334
339
348
363
379
393
399
357
312
302
306
305
308
314
318
321
324
332
335
241
438
445
338
335
336
337
345
351
361
375
390
401
388
341
314
310
310
315
313
322
324
327
329
331
333
279
411
394
351
318
322
324
330
335
346
361
376
390
387
342
302
296
294
296
298
302
307
310
311
316
320
219
435
440
324
320
322
326
333
341
350
365
380
390
373
318
294
294
295
297
298
302
308
314
315
322
328
315
270
419
377
327
332
335
340
348
356
370
386
400
398
357
305
296
296
295
297
301
306
315
322
323
331
331
288
388
391
362
333
337
339
345
351
363
381
400
412
408
361
318
307
308
305
308
310
314
317
317
318
322
323
222
409
395
319
324
329
331
338
347
361
380
397
407
372
321
306
306
308
310
312
312
316
327
329
333
340
339
223
447
417
333
336
340
346
352
359
371
389
402
410
378
325
305
303
303
304
306
305
307
315
314
318
320
322
222
385
395
312
314
317
320
324
333
349
364
379
389
360
308
284
280
282
286
289
290
297
300
309
310
313
316
272
349
416
348
315
318
321
328
334
345
361
380
393
393
346
306
300
303
305
309
313
315
315
317
327
332
337
339
344
226
468
435
347
350
354
356
362
371
383
397
415
423
402
350
328
322
325
327
331
334
337
339
342
347
349
350
348
246
464
440
337
329
333
340
347
358
370
387
402
413
399
344
311
308
309
311
311
315
317
318
316
315
323
323
325
329
327
220
469
383
325
325
326
331
336
344
356
375
391
401
372
320
299
299
299
303
304
310
316
314
330
350
316
333
338
330
266
417
387
331
327
327
330
334
340
348
363
377
388
359
312
295
293
292
296
298
304
304
307
313
317
317
322
329
236
420
409
334
329
334
343
348
354
368
388
401
407
398
354
324
320
320
326
325
335
335
337
347
346
348
349
322
384
385
383
349
352
357
360
366
376
388
403
412
411
370
320
308
307
307
308
311
310
313
315
313
315
317
315
217
421
376
311
312
314
318
323
331
346
363
382
392
362
311
293
293
292
292
294
293
296
302
306
311
314
317
321
209
456
434
324
320
324
327
333
342
355
372
391
405
391
339
308
304
306
309
313
315
318
318
320
327
336
338
341
345
251
452
465
343
336
337
341
345
351
361
379
395
409
403
352
310
303
302
303
303
304
306
308
305
305
317
320
321
325
322
231
395
390
319
322
328
328
331
344
355
375
390
398
378
327
303
292
294
298
300
299
303
310
302
317
321
322
327
333
239
420
417
334
334
335
335
343
354
366
378
395
408
396
349
317
314
308
311
311
317
314
322
319
321
323
325
329
213
485
417
334
334
333
333
337
348
360
384
405
420
405
354
318
319
319
319
314
315
322
321
326
329
332
338
233
476
464
345
331
334
336
338
344
358
375
394
411
398
339
306
298
300
300
300
302
301
307
314
317
319
324
324
200
457
411
317
318
319
321
326
336
350
370
391
403
381
323
298
295
297
297
300
300
302
307
310
318
320
323
325
262
367
486
342
321
322
326
330
339
352
366
390
406
407
354
308
298
301
302
303
306
309
312
317
327
327
331
332
331
197
494
402
326
330
334
337
346
355
369
388
407
418
392
333
313
313
314
315
317
320
320
319
322
327
327
330
332
335
209
502
436
327
326
329
333
340
349
363
381
397
407
396
338
304
302
304
304
309
309
313
316
316
320
329
328
330
334
333
205
476
407
320
320
320
325
330
340
355
373
391
404
385
333
304
307
309
315
321
325
327
331
332
338
337
337
338
257
434
448
353
330
333
338
343
353
363
382
397
414
414
366
322
311
307
307
311
312
312
311
312
319
318
322
325
325
228
407
400
322
323
328
328
335
345
358
379
391
403
378
326
300
295
294
297
297
301
302
306
309
318
320
324
327
328
216
445
400
322
323
324
328
333
337
348
368
383
394
371
318
296
296
299
300
302
307
308
309
314
319
327
327
327
329
298
304
451
359
320
323
326
333
338
346
365
383
399
406
373
319
308
308
310
314
316
319
321
326
332
340
339
346
348
306
388
420
377
343
345
347
354
361
372
386
406
419
421
386
337
322
321
321
324
326
331
332
330
333
332
335
333
331
333
225
483
444
330
326
327
330
337
346
356
375
394
409
403
345
308
303
303
304
302
304
312
305
312
313
316
317
319
313
246
395
474
322
313
319
325
329
334
341
353
373
387
388
337
292
285
288
289
291
298
302
308
314
320
327
326
332
335
336
336
336
336
213
490
450
317
315
317
319
325
331
344
359
379
396
404
359
313
306
306
306
307
313
317
324
331
334
336
338
337
343
341
341
343
244
446
470
331
319
319
323
328
338
348
366
385
399
403
362
313
300
294
303
305
306
315
319
321
324
323
324
325
329
329
331
331
219
442
443
325
323
323
325
330
336
347
360
377
394
395
353
310
300
303
305
308
310
314
318
319
321
322
322
328
329
328
331
271
389
436
356
324
330
329
333
339
347
368
384
400
409
379
332
316
310
314
313
315
317
322
320
324
325
330
330
332
335
237
450
429
335
325
326
327
332
337
349
365
387
403
404
359
325
309
313
315
320
318
325
324
330
335
336
339
344
347
256
468
444
356
352
357
356
358
361
366
379
392
405
402
357
318
308
308
307
309
313
314
320
326
331
332
331
337
325
274
404
379
329
333
334
336
341
351
361
380
395
402
372
323
301
298
301
304
307
308
313
312
316
322
325
326
327
329
229
437
412
324
324
324
327
330
335
345
363
383
394
386
338
302
293
293
294
295
298
301
305
307
310
312
320
320
322
325
312
278
382
374
324
327
329
332
338
346
363
380
394
404
383
333
307
305
304
305
308
313
315
319
320
328
328
331
333
333
238
426
403
327
329
331
333
337
346
358
376
394
405
389
340
311
306
307
309
312
315
317
322
325
326
331
339
339
342
344
331
290
435
387
337
338
339
340
345
353
365
382
397
405
382
328
306
302
302
303
303
305
308
312
318
321
322
323
330
326
325
327
318
254
412
381
327
332
334
337
341
347
360
376
391
402
383
329
302
296
296
297
300
305
311
312
317
322
330
331
332
336
310
335
392
379
338
343
346
348
357
362
378
395
409
415
388
340
318
315
312
314
315
319
324
322
327
324
327
326
327
327
240
446
423
329
315
318
319
325
332
342
356
374
387
389
343
300
292
292
294
293
297
302
306
307
310
317
319
320
323
326
200
501
398
323
324
327
328
334
340
359
374
397
411
404
354
318
315
314
315
316
319
322
324
326
330
339
337
339
344
334
280
428
389
340
342
342
347
349
357
368
387
403
412
390
339
315
311
311
313
316
319
318
319
320
318
321
327
328
330
333
332
229
440
427
331
332
334
337
341
345
354
367
383
395
394
354
314
304
303
304
307
307
307
311
314
314
316
314
317
325
327
328
332
334
241
444
424
334
330
333
335
337
344
354
367
386
396
402
370
320
306
303
305
305
306
307
310
313
311
317
320
329
330
334
336
277
399
433
352
329
331
334
337
344
352
367
387
402
411
382
333
316
313
312
314
313
317
319
321
322
323
330
335
334
336
340
260
434
439
346
334
336
338
342
349
357
374
391
406
410
375
330
313
310
313
315
315
320
321
330
329
342
345
339
344
344
281
379
387
340
347
347
351
357
369
378
393
403
414
403
354
336
324
309
318
309
309
321
318
323
322
326
333
338
274
410
374
325
326
323
321
331
332
358
375
375
387
367
319
303
301
296
294
297
300
321
328
342
345
343
344
256
505
414
329
315
309
307
320
336
361
387
411
429
431
382
337
324
319
315
310
304
310
303
302
300
299
304
233
391
432
320
306
311
313
319
325
336
353
372
387
392
347
299
288
293
296
295
298
301
302
309
311
318
319
321
323
303
290
428
360
321
325
327
333
337
348
363
381
397
405
384
332
309
307
308
308
310
312
312
316
318
328
326
329
331
332
231
429
407
329
330
331
333
339
347
358
375
391
405
395
348
313
308
308
308
310
312
315
318
319
320
321
324
330
329
331
334
317
299
420
373
329
332
334
338
341
348
361
377
391
401
386
336
307
303
304
307
308
308
312
316
350
301
319
326
330
325
331
332
331
336
332
272
426
381
331
335
337
339
342
352
362
378
391
401
393
346
312
307
302
305
304
305
307
310
309
314
318
318
320
322
314
284
381
372
324
331
334
337
344
351
364
384
397
408
386
331
309
304
304
304
310
312
316
315
319
319
322
322
327
331
290
375
403
358
331
330
332
338
343
353
369
385
399
406
375
324
306
307
302
305
308
308
311
313
317
313
315
327
325
327
328
326
237
421
397
322
321
328
331
335
347
357
372
396
401
397
355
312
300
302
301
305
306
311
315
319
323
314
316
328
324
330
331
331
246
417
397
326
328
328
328
334
342
354
373
393
408
401
355
319
313
308
310
311
311
314
315
316
316
313
310
311
321
324
327
331
327
253
408
386
326
328
330
334
338
345
356
376
391
401
391
341
305
295
296
295
295
296
298
301
303
304
305
311
307
302
327
325
328
325
334
229
450
408
322
319
325
330
331
341
360
377
397
414
408
369
327
313
311
312
312
315
318
321
321
323
322
316
316
320
326
327
331
336
275
423
420
355
422
322
328
360
360
376
393
403
424
427
403
348
319
319
308
303
314
319
329
335
342
349
354
363
358
359
358
366
368
354
358
359
260
472
450
341
338
327
343
355
354
356
378
402
401
416
385
331
313
316
308
317
320
322
322
330
312
323
319
316
316
320
322
320
323
330
329
326
329
330
233
445
411
322
320
325
327
330
331
339
352
371
383
392
360
310
288
288
289
288
291
295
302
307
307
308
314
315
312
312
317
312
319
318
315
321
222
429
400
314
322
329
333
334
346
359
384
370
407
420
372
322
302
309
308
310
317
313
324
330
327
335
327
321
323
322
330
332
332
332
274
400
458
358
337
341
347
350
356
365
372
393
411
417
398
341
310
305
299
304
305
307
310
312
318
316
314
311
309
312
317
317
323
326
251
420
441
341
313
327
324
325
327
343
353
372
389
398
376
324
301
299
297
292
291
287
289
292
300
308
312
320
321
322
320
329
329
331
333
334
242
430
400
330
330
332
333
339
343
357
375
393
405
408
373
326
310
309
311
314
318
321
329
331
339
339
337
339
343
344
348
345
351
273
466
436
357
338
339
342
345
353
358
372
386
402
409
386
330
303
301
302
302
302
305
307
313
313
314
313
324
322
322
325
320
248
422
377
315
316
318
321
325
333
342
361
375
390
384
338
301
293
292
293
296
295
298
302
307
311
309
311
315
321
319
320
324
254
405
443
338
322
321
323
326
330
338
351
370
387
399
378
328
302
303
302
297
302
304
309
311
315
318
319
323
331
329
334
333
337
240
454
436
335
332
338
341
345
348
355
371
392
406
412
381
334
311
313
312
315
313
319
324
324
321
330
336
336
344
338
338
285
411
442
369
345
340
348
352
359
364
355
371
409
422
379
344
309
311
296
308
313
312
327
303
311
309
315
322
325
327
330
333
242
444
447
337
332
334
335
340
344
356
371
384
402
405
380
329
308
305
306
306
308
310
312
319
321
323
327
329
331
276
424
394
354
331
335
339
342
346
359
373
389
404
411
378
327
305
298
298
296
315
303
308
314
323
317
316
317
316
227
417
391
324
329
333
338
335
332
333
345
361
381
380
340
308
302
302
303
303
305
305
307
312
319
317
320
326
326
241
423
396
331
333
336
339
342
349
361
376
392
404
397
346
311
308
304
307
311
312
311
315
320
323
327
329
331
293
367
390
358
325
330
332
337
342
353
364
381
394
405
383
331
307
302
299
304
306
307
301
314
318
322
326
333
320
287
324
424
357
330
324
330
337
346
350
363
380
394
405
386
338
312
315
315
315
315
315
316
316
318
326
328
331
335
336
277
404
425
346
329
333
335
341
347
357
371
386
399
409
383
333
310
307
306
310
310
313
317
319
320
322
331
332
334
335
318
319
371
378
329
334
336
343
347
351
361
377
389
398
385
332
302
295
296
296
297
300
302
302
317
322
300
312
322
319
241
426
375
333
324
324
337
337
342
360
390
387
409
401
353
320
318
319
322
318
320
320
319
322
330
329
334
337
344
243
429
421
344
333
342
347
351
357
362
378
393
405
409
364
325
314
311
311
308
307
301
304
308
313
319
324
327
272
405
409
348
322
323
323
325
329
336
348
367
380
390
362
312
297
296
298
299
303
304
305
305
307
310
315
316
319
324
276
354
430
349
324
328
331
336
340
348
363
380
394
405
381
333
309
304
305
308
307
312
316
315
320
323
330
329
333
336
284
404
399
361
333
337
340
343
355
361
377
392
408
414
392
342
319
313
313
314
316
316
316
317
315
316
324
323
325
330
333
232
450
421
330
332
332
333
338
344
354
369
385
400
405
365
324
314
313
313
314
311
315
317
320
322
321
325
333
329
334
331
328
226
434
426
332
331
340
341
346
344
350
363
379
389
387
358
317
303
307
317
313
314
318
325
327
328
325
330
326
325
323
327
238
445
416
341
337
341
342
347
351
360
375
390
405
411
376
325
306
304
300
302
304
309
313
315
315
312
325
324
329
330
332
229
451
411
329
330
332
335
339
345
355
369
387
400
401
359
319
309
310
310
310
311
315
317
315
313
327
328
328
328
331
241
441
427
333
329
331
333
335
342
350
365
384
400
404
370
322
305
306
304
308
306
310
314
316
323
325
329
330
337
288
405
390
364
333
335
339
346
350
362
373
391
411
413
388
338
314
312
312
311
315
314
317
313
313
317
320
319
320
322
234
425
427
322
315
318
320
326
334
344
361
380
395
402
367
315
300
299
297
297
297
299
299
304
305
318
320
323
326
325
238
413
389
324
325
326
329
333
342
351
371
386
402
395
343
313
303
306
305
305
307
312
312
311
312
322
322
326
325
324
240
399
397
328
330
334
334
344
344
356
371
389
405
404
362
320
311
307
309
311
309
315
315
315
311
322
322
322
328
331
235
449
419
326
319
322
327
333
339
351
366
384
400
402
362
317
305
304
305
307
306
311
313
315
314
313
320
322
322
322
321
263
385
433
345
324
328
332
335
340
349
358
377
395
405
382
334
310
306
306
309
307
313
313
310
312
316
321
322
325
324
288
348
389
360
325
326
327
330
335
342
353
366
380
390
369
319
301
304
308
311
316
319
319
320
320
321
318
330
330
329
327
330
244
423
383
321
323
325
331
331
334
343
358
377
395
393
348
309
304
307
305
309
311
312
314
314
317
325
326
324
326
327
228
433
414
331
331
333
332
332
338
345
359
377
396
403
365
324
316
319
320
320
323
323
326
333
344
347
353
360
363
285
444
442
365
364
364
367
371
374
382
396
416
424
419
372
334
325
320
320
320
321
321
322
329
325
327
332
335
249
410
411
336
339
343
345
350
359
366
379
395
405
402
356
313
300
299
300
302
304
305
311
313
315
316
320
322
264
377
425
340
320
323
328
332
336
342
356
371
388
393
366
317
298
300
300
301
301
301
308
310
315
315
319
318
266
384
390
340
320
320
325
333
339
352
362
379
394
400
372
324
308
307
308
312
315
322
326
333
335
334
338
340
256
439
415
342
336
340
338
344
348
356
371
385
396
399
363
317
303
301
300
301
309
313
319
319
322
326
329
228
438
400
324
322
324
324
328
336
346
359
373
388
381
334
299
295
298
300
301
304
313
314
319
316
319
323
322
228
451
378
321
326
326
330
334
341
356
371
389
402
390
335
306
306
307
305
303
308
320
309
318
320
330
269
392
427
351
324
332
335
337
335
334
344
355
372
384
353
313
304
307
309
308
312
309
304
304
311
311
316
326
330
236
427
411
339
344
347
350
353
364
374
386
402
416
408
361
325
319
326
329
330
339
343
350
350
353
350
358
279
472
444
367
354
356
355
358
360
370
383
392
402
405
364
318
304
298
297
296
299
302
304
304
304
304
306
204
463
426
307
301
302
305
313
320
329
344
361
376
381
341
298
291
293
294
295
296
302
306
315
311
318
324
228
474
460
333
322
325
331
340
349
354
372
389
406
411
373
327
316
314
316
317
320
321
324
329
330
331
331
335
212
508
434
329
332
328
332
337
341
348
363
379
390
395
353
309
300
295
299
308
309
302
308
319
318
322
325
320
312
259
477
360
326
331
334
345
337
348
358
371
387
398
387
337
313
313
315
314
319
321
322
320
326
328
331
335
337
341
217
510
430
339
335
334
338
342
352
364
378
391
405
409
371
325
311
314
312
310
312
313
312
313
313
315
316
321
326
249
427
450
345
324
324
325
332
335
340
350
366
379
390
362
312
298
298
297
300
303
307
312
309
314
316
319
321
322
325
243
421
453
340
328
332
335
342
346
354
363
376
389
398
375
325
311
309
312
315
315
322
318
324
327
330
331
331
336
249
434
454
343
332
331
333
338
339
349
364
378
391
400
368
318
305
304
305
308
311
314
316
320
326
326
327
329
331
227
439
426
332
329
330
334
339
346
356
371
387
400
402
361
319
305
307
308
308
312
309
312
314
316
317
324
327
250
422
441
345
332
336
338
342
351
362
375
391
404
413
378
327
320
319
319
320
325
324
323
329
331
335
341
343
231
460
445
345
346
346
351
353
354
359
367
379
392
394
351
315
312
316
319
322
324
322
329
328
333
333
335
335
262
408
438
347
332
332
337
338
348
351
361
376
387
397
362
319
306
302
297
300
302
302
303
306
302
303
301
308
225
405
401
324
319
325
328
335
342
352
366
378
388
384
333
293
288
294
301
307
311
316
318
324
326
325
327
319
205
526
368
320
323
326
332
338
349
359
375
394
404
389
335
314
312
310
314
312
316
322
329
331
330
335
323
302
374
377
332
335
337
339
341
350
360
376
387
395
370
319
297
295
294
296
302
309
313
318
320
323
324
325
223
445
380
313
315
316
323
331
342
354
370
388
401
391
339
310
307
309
310
311
313
319
321
327
325
323
323
311
242
482
361
324
329
333
339
345
353
365
382
398
408
385
330
311
309
312
312
316
317
320
326
327
333
332
336
337
318
279
470
366
330
330
335
339
344
351
364
380
393
404
383
329
305
303
303
304
305
309
313
311
315
318
318
322
323
324
208
486
425
325
320
324
328
332
338
351
364
381
395
399
359
312
303
303
304
305
310
313
315
317
317
319
324
321
319
324
301
291
470
360
323
324
327
331
337
348
357
371
384
395
379
326
300
299
299
300
305
307
310
315
312
315
318
319
318
320
322
201
476
399
324
328
329
332
338
343
354
367
380
395
392
346
310
306
307
308
312
319
324
327
330
333
332
334
340
342
344
347
321
317
494
380
345
346
350
355
359
365
374
390
404
417
405
353
322
319
318
318
319
323
328
330
335
334
331
334
339
336
335
336
331
228
461
394
328
328
329
333
336
343
354
362
380
389
386
341
302
290
295
290
295
294
301
304
305
303
314
311
312
313
297
300
335
359
309
319
321
327
337
346
356
372
385
396
383
331
304
304
308
311
313
316
318
318
315
317
323
321
321
325
312
243
486
362
323
325
328
331
336
343
354
370
387
400
388
337
312
308
308
308
306
309
314
313
317
319
321
321
324
324
224
457
438
324
318
319
322
328
335
345
362
380
395
400
362
315
306
307
309
312
314
318
319
318
318
318
324
323
326
330
307
294
423
367
323
326
328
332
336
341
355
374
389
402
388
338
309
307
308
310
310
313
316
316
321
323
325
327
327
329
279
370
415
349
323
327
328
334
337
346
356
372
387
400
372
322
301
301
300
302
305
309
309
312
315
323
324
323
326
304
317
351
369
324
326
333
339
348
356
368
384
398
411
392
338
311
307
307
308
308
313
314
314
315
320
321
322
324
324
211
481
386
323
324
326
329
333
339
349
366
383
397
388
335
303
299
302
303
302
303
306
308
310
320
322
324
328
329
218
434
391
320
322
328
326
337
345
355
369
387
400
388
341
307
300
297
307
318
324
315
322
359
333
320
328
337
338
339
343
283
382
463
351
331
334
333
336
338
343
354
368
385
400
382
335
311
312
313
315
314
314
318
315
321
328
333
333
338
341
253
440
443
345
337
339
342
346
352
357
371
386
400
406
372
326
309
309
311
312
313
314
317
316
319
322
326
327
332
333
245
436
424
339
332
336
339
344
351
360
375
389
403
408
370
322
306
302
302
305
307
311
309
316
314
320
322
321
324
284
333
448
348
321
322
322
326
332
340
353
369
385
394
368
314
295
292
290
292
291
296
301
303
307
308
317
319
320
323
317
236
415
382
321
327
328
331
337
344
356
369
385
398
392
344
309
305
306
305
305
305
307
308
313
321
328
332
333
336
289
387
415
363
336
340
339
343
344
352
361
376
389
396
375
331
310
311
313
314
318
320
319
322
320
325
327
326
332
300
374
386
374
340
344
350
352
357
366
378
392
404
415
395
349
324
321
322
325
327
332
332
336
338
341
342
341
345
291
413
413
362
335
336
337
339
343
353
365
382
394
400
369
321
301
296
295
296
297
302
300
307
311
316
321
320
322
243
426
432
329
315
316
318
324
327
348
363
382
397
399
364
321
307
307
305
306
307
312
319
323
328
333
340
337
335
334
335
230
460
421
341
346
349
353
356
362
368
383
395
407
404
358
318
310
312
315
317
320
323
326
326
328
333
332
329
329
324
228
430
381
320
326
330
332
341
349
359
376
393
402
390
338
302
295
293
294
297
301
306
307
311
320
322
324
327
329
230
439
433
332
327
334
341
346
349
363
376
396
415
429
369
333
321
314
325
311
331
320
311
313
335
323
336
331
341
227
396
395
334
316
339
337
334
341
354
370
391
406
399
351
311
302
302
300
302
303
309
315
320
321
323
327
315
279
368
371
315
318
320
326
332
342
356
375
391
400
383
330
304
296
295
298
297
301
303
307
312
315
320
322
328
229
427
407
325
325
326
331
334
342
352
369
385
395
389
342
301
293
295
297
300
301
302
302
305
310
308
312
315
319
220
435
421
321
318
321
324
328
335
347
364
380
394
398
358
315
302
302
302
305
306
309
312
318
324
327
331
334
261
436
427
347
336
337
341
346
354
363
379
397
412
417
377
333
318
315
316
314
317
317
317
321
326
331
333
335
339
253
450
439
348
342
346
347
353
361
370
387
405
421
424
387
342
329
328
328
330
331
330
334
338
345
345
347
348
318
354
428
380
345
348
350
351
358
364
376
395
407
418
390
337
316
314
313
313
316
312
316
317
325
322
326
325
314
309
347
376
325
332
332
331
343
352
363
381
397
408
387
336
309
303
300
300
302
300
304
306
306
307
307
311
255
379
399
333
307
310
310
315
322
331
346
365
382
388
354
306
291
292
291
292
293
295
302
308
313
314
316
320
279
339
425
344
317
321
322
328
335
343
358
377
396
405
373
322
305
305
305
305
308
310
312
315
323
327
327
330
332
244
433
434
334
328
331
335
339
346
356
371
392
408
409
371
324
311
311
311
313
315
318
321
324
321
323
329
330
331
331
332
237
441
437
334
330
328
333
338
342
354
368
386
399
404
372
324
306
306
303
304
308
310
314
315
315
321
325
324
324
326
298
324
388
365
326
329
332
335
341
349
362
380
400
409
391
339
313
312
311
314
318
320
322
325
323
323
328
329
330
333
334
252
438
440
340
332
335
335
338
345
354
368
386
402
408
376
328
310
308
309
308
311
314
317
318
318
324
325
326
328
333
255
437
430
344
331
333
336
340
346
356
370
391
405
413
378
329
314
311
311
311
314
317
319
323
320
318
326
324
324
325
325
230
415
400
323
324
326
327
332
341
352
368
388
399
398
358
315
307
301
306
307
307
312
318
307
319
323
335
317
326
248
450
411
337
316
332
326
344
346
363
368
397
389
383
353
304
289
274
287
290
299
304
309
313
319
320
318
320
323
236
442
380
323
334
337
344
347
354
368
384
402
414
399
346
313
304
303
301
303
306
311
314
320
330
332
332
338
336
244
429
400
334
335
335
340
345
347
358
376
397
409
400
348
316
312
311
312
317
319
323
325
331
335
341
341
340
344
315
343
406
376
338
337
340
340
343
351
363
381
396
404
383
331
304
302
300
302
306
309
315
313
315
324
325
322
325
324
230
406
392
318
315
317
320
322
329
343
358
377
388
388
336
295
283
285
285
288
292
298
300
308
315
320
322
329
335
250
446
449
345
334
333
334
331
338
345
360
380
392
400
356
308
293
294
292
293
299
305
306
309
312
324
317
319
334
292
313
417
361
324
330
328
331
334
344
355
375
394
408
391
341
315
313
310
310
311
313
316
320
324
328
327
327
327
237
437
415
333
325
328
332
336
341
350
365
381
393
393
349
307
296
299
301
302
305
307
311
314
321
323
326
330
265
397
439
345
330
332
334
337
342
351
368
385
400
407
372
323
309
311
311
312
314
317
319
322
324
335
337
340
342
345
249
436
415
342
345
346
348
352
363
372
388
407
417
413
368
331
321
320
321
320
321
323
326
330
335
336
338
338
306
379
385
371
336
337
340
341
346
357
369
386
399
408
377
324
300
296
297
298
299
302
302
306
313
312
314
318
319
218
437
386
314
315
317
321
325
331
341
358
376
391
381
331
298
294
294
295
295
297
298
302
306
315
315
318
322
323
238
412
388
323
326
329
332
338
347
360
377
394
408
395
345
315
306
303
306
307
308
308
316
318
323
324
327
328
301
356
368
362
328
333
336
337
346
355
366
389
401
414
391
334
313
317
324
310
313
317
319
327
332
331
333
331
328
282
377
380
325
328
328
334
336
344
361
371
386
406
381
327
299
298
293
289
294
295
298
305
309
311
313
321
324
244
426
430
332
321
324
326
333
341
352
372
385
403
407
373
320
313
314
319
324
318
311
330
309
320
334
329
346
255
408
425
338
364
355
355
419
324
349
386
398
412
418
362
324
321
317
316
339
308
325
331
338
335
338
349
342
266
397
414
348
350
356
352
359
368
384
397
412
430
415
370
337
329
327
330
323
345
328
348
312
326
340
350
252
420
404
352
313
326
341
344
322
346
368
388
400
391
343
298
281
294
299
291
300
320
319
316
312
373
256
201
428
396
316
326
321
320
334
313
330
348
376
395
387
339
298
292
286
288
292
289
300
305
309
312
313
318
315
242
402
382
326
327
331
334
339
347
361
379
395
408
389
335
307
304
304
306
309
312
316
318
327
325
328
330
330
231
452
420
329
324
326
331
334
343
352
369
386
399
396
349
311
304
307
308
308
312
312
318
318
317
319
330
332
331
336
337
233
446
417
332
335
336
340
345
350
365
381
396
409
407
366
324
316
317
313
318
317
320
327
329
334
337
338
343
325
326
387
387
343
347
350
351
357
365
376
389
404
416
390
336
317
316
317
319
323
325
324
328
331
329
331
331
332
205
534
415
327
328
329
329
332
339
350
367
384
400
395
343
305
299
301
299
302
302
304
308
315
313
314
316
318
217
464
428
322
317
319
321
326
332
342
357
374
389
389
340
295
286
286
289
290
294
298
299
303
305
308
308
310
313
304
241
416
365
316
321
324
327
331
343
358
376
394
407
393
340
309
308
309
308
310
314
309
319
321
323
327
331
332
296
393
392
371
339
340
341
346
352
364
376
398
411
413
391
331
311
310
310
311
314
316
317
321
321
323
325
326
211
466
414
320
322
326
332
331
340
352
370
385
399
393
342
303
297
294
294
296
297
303
313
317
322
325
329
233
429
431
333
331
332
333
336
343
354
373
391
404
394
356
310
304
307
307
311
317
324
327
332
329
329
331
267
406
428
360
331
335
335
336
341
349
362
375
390
396
361
313
290
285
290
287
292
291
300
309
299
303
327
244
397
432
359
317
321
317
327
335
339
350
355
375
374
344
309
299
304
313
319
323
327
328
340
343
347
352
356
233
468
450
350
353
353
358
357
362
372
383
397
406
393
350
324
317
323
327
330
332
338
342
350
348
352
346
244
434
416
317
300
296
291
290
298
303
313
327
336
331
283
254
252
260
271
282
293
307
319
325
331
338
343
185
579
417
338
340
341
341
341
345
352
365
381
394
376
314
289
291
295
297
302
311
321
325
331
332
335
176
568
423
333
337
340
341
343
348
360
376
392
405
392
335
308
311
310
316
317
323
329
340
340
340
343
292
352
469
357
323
322
323
326
333
340
355
371
386
396
356
310
299
301
305
310
314
316
319
332
332
330
335
334
198
487
407
328
332
336
338
348
354
364
379
403
408
395
343
307
307
310
312
311
309
313
316
327
323
328
330
281
342
475
351
321
320
324
328
341
346
359
374
388
395
359
306
295
292
297
303
305
304
318
322
327
330
329
333
212
463
456
335
335
337
339
345
346
363
377
389
403
401
356
315
309
311
312
319
323
329
335
342
347
345
347
289
389
477
364
343
347
343
350
354
361
372
386
397
402
366
318
302
302
305
307
309
307
312
318
321
324
324
327
211
415
408
322
324
329
334
340
346
357
370
384
392
383
333
297
293
293
294
297
296
298
302
311
312
314
314
301
243
405
369
318
321
327
331
337
348
359
376
389
401
380
329
308
305
308
311
315
318
321
328
335
334
337
339
301
343
438
371
338
340
345
348
353
362
374
391
403
414
386
335
317
316
315
319
320
319
322
325
331
330
331
332
245
420
447
342
327
327
326
329
330
341
354
369
383
390
351
305
296
290
288
286
289
290
296
309
311
314
319
318
226
389
393
324
328
331
334
339
344
356
369
385
400
388
338
311
305
309
308
308
311
321
327
328
332
333
323
305
343
390
334
335
338
343
344
352
366
381
395
407
382
335
308
305
308
311
314
317
323
324
324
327
327
207
443
416
328
331
335
339
346
352
362
375
390
401
389
337
314
312
312
311
313
316
319
320
323
328
290
340
462
362
333
337
335
341
349
359
374
390
397
397
363
317
306
307
308
316
321
325
329
331
335
303
375
379
375
335
339
341
342
346
354
366
376
390
391
349
304
292
292
292
293
295
300
298
302
303
305
186
410
384
300
304
305
308
313
325
335
352
367
379
360
309
290
291
292
296
297
301
308
310
314
317
322
186
511
424
323
322
323
326
335
338
352
367
385
399
387
334
304
306
307
308
309
310
317
319
321
324
324
207
471
402
332
334
336
341
348
357
368
385
399
410
380
327
309
310
311
313
310
316
319
324
321
321
326
256
395
463
346
326
329
333
338
344
356
369
386
401
406
368
326
318
322
324
323
324
333
338
339
337
342
328
326
384
398
352
351
356
357
365
374
383
401
416
419
383
335
315
310
310
313
314
319
319
338
314
319
267
396
428
340
321
316
317
323
329
337
348
362
383
385
338
298
293
299
301
300
305
307
338
289
301
300
166
471
380
296
308
307
316
323
331
346
363
374
391
370
313
287
287
289
295
296
304
310
311
318
323
323
244
401
390
334
336
337
342
350
354
365
384
394
405
380
331
313
313
315
314
322
326
326
328
330
331
233
402
418
337
340
342
351
356
363
371
383
394
404
384
335
309
307
308
315
318
325
330
327
328
330
308
320
362
375
330
332
335
341
345
356
369
383
397
399
363
316
300
300
298
298
301
304
305
306
311
314
210
421
423
321
320
324
326
326
337
347
362
379
387
380
334
303
298
296
300
296
303
311
309
313
317
316
256
355
377
319
319
317
319
322
332
347
367
386
393
365
320
305
308
308
308
314
317
319
319
325
328
230
438
444
335
329
331
338
336
348
365
382
398
408
396
344
314
307
309
310
315
318
321
324
328
330
285
388
394
357
329
334
339
340
348
357
375
392
404
400
353
312
303
300
298
303
307
313
311
317
318
312
240
399
374
319
321
326
329
339
349
366
386
400
406
367
322
309
308
308
310
315
319
323
326
332
329
247
385
400
334
337
340
344
348
356
367
385
398
402
361
313
301
302
306
310
317
327
329
329
331
336
296
330
445
349
324
326
326
333
337
344
355
370
384
382
338
299
296
301
306
309
314
320
328
329
333
337
320
271
426
375
328
331
332
337
343
351
364
380
395
400
362
319
307
311
314
314
320
326
334
338
342
347
274
426
438
357
339
341
342
346
353
364
375
390
399
393
344
309
306
304
307
313
321
328
332
332
335
329
282
345
384
326
328
332
336
339
349
359
374
388
390
357
312
298
297
300
302
309
317
322
322
326
329
302
317
391
363
321
323
327
331
338
348
361
375
388
387
346
304
296
297
299
300
301
310
315
317
317
321
262
373
418
335
316
320
323
328
333
342
356
373
386
380
332
299
294
295
299
300
308
315
322
325
332
333
229
413
411
327
326
327
330
335
346
354
369
384
394
367
315
297
298
300
304
305
312
319
321
326
330
325
257
399
389
332
334
335
338
344
354
364
380
393
398
364
321
307
310
311
314
323
326
333
336
342
340
281
372
406
344
343
346
343
347
357
371
386
397
400
365
319
304
302
303
307
318
323
325
328
332
331
284
355
386
329
332
332
336
344
354
367
383
396
398
359
315
303
304
306
309
317
322
326
328
331
333
229
419
403
331
332
330
331
334
342
354
369
382
385
351
301
287
289
288
290
299
306
312
317
322
322
254
363
382
322
323
327
328
334
341
350
364
376
382
343
297
285
286
291
293
303
306
309
316
322
307
320
344
375
332
335
340
345
349
359
375
389
399
395
358
322
313
313
317
318
332
334
334
336
339
319
331
370
370
329
332
325
320
317
317
319
329
344
346
305
282
285
293
301
303
313
321
331
337
341
348
232
503
455
357
356
352
351
350
355
367
386
402
412
382
328
308
308
308
304
312
315
320
326
332
336
215
488
410
338
338
338
338
340
346
362
383
403
408
365
319
307
303
300
301
300
309
317
320
326
330
319
249
437
378
322
323
323
325
335
345
363
380
397
398
350
300
281
277
276
277
276
283
294
299
307
314
311
196
482
375
319
321
323
328
332
340
354
371
391
393
351
308
300
302
307
312
309
316
319
327
327
331
336
225
455
459
342
339
343
348
354
363
372
388
401
411
388
334
307
306
308
309
311
315
314
315
324
328
330
337
333
242
387
397
326
325
330
332
343
353
365
379
388
398
366
318
300
293
295
300
306
306
308
314
316
318
320
320
253
354
385
325
328
331
337
341
351
368
384
397
400
366
318
300
299
300
305
310
316
318
324
323
327
336
292
363
452
367
339
344
344
348
357
369
383
401
413
408
356
320
313
312
312
310
310
311
321
325
324
332
337
287
390
402
358
330
332
333
339
350
360
378
395
404
396
350
311
303
303
304
308
310
318
319
325
326
328
328
264
409
425
344
320
325
327
333
342
353
366
381
395
384
337
303
299
300
301
303
304
305
306
314
315
318
323
312
239
439
364
312
313
316
320
325
339
353
373
389
393
350
303
291
292
293
296
295
299
304
309
312
313
318
321
211
459
436
325
322
325
332
337
346
359
375
393
401
383
325
299
297
296
297
297
302
306
311
320
321
322
326
316
245
418
380
327
332
336
339
347
355
374
388
406
407
366
324
312
312
312
312
314
316
316
319
331
328
338
346
298
374
393
377
343
349
344
350
359
370
378
395
408
409
371
335
325
318
321
323
321
326
330
334
328
327
327
269
412
399
360
338
348
350
352
360
371
382
393
403
385
345
308
296
296
302
309
312
326
341
332
331
324
346
244
460
397
328
310
325
313
330
354
347
368
411
397
383
325
305
300
309
308
310
318
301
311
297
303
307
292
318
398
364
321
322
336
306
325
336
365
380
393
393
343
310
273
282
285
300
308
304
308
312
318
311
321
326
232
411
389
317
317
315
308
326
338
357
381
401
411
383
333
316
312
306
310
311
311
318
336
324
344
315
340
347
280
358
402
365
335
344
349
354
363
372
390
409
423
408
368
320
313
309
309
308
312
318
319
328
332
338
338
338
340
279
414
431
354
332
337
347
348
351
350
375
393
411
405
356
320
313
310
298
304
298
312
324
323
337
340
339
332
330
308
271
361
357
322
329
333
335
337
342
351
364
379
383
349
302
287
285
285
285
287
286
292
294
301
304
307
313
304
277
375
360
313
319
314
322
326
337
355
377
397
400
356
309
303
297
297
300
301
307
311
313
319
321
327
327
331
333
249
457
434
339
335
337
338
343
349
358
380
397
415
404
345
308
304
307
307
310
310
315
323
329
333
337
338
343
345
343
344
259
457
438
348
341
340
343
345
354
366
385
402
416
408
360
320
309
307
305
309
311
313
316
317
312
312
319
313
316
319
321
226
437
388
323
328
332
338
347
356
366
387
400
412
386
334
308
308
310
306
309
311
315
315
317
318
329
324
331
331
321
285
364
373
322
326
332
335
339
348
362
382
396
400
367
318
301
299
300
304
306
313
318
322
327
325
325
324
324
244
433
398
336
329
335
338
343
351
359
373
392
401
394
344
306
304
300
302
300
304
302
310
310
313
316
321
323
236
437
392
327
326
331
336
342
350
362
376
388
396
374
320
296
297
299
301
308
313
313
323
324
330
331
331
329
296
307
436
333
316
315
319
329
335
350
367
390
407
413
370
327
321
323
321
320
319
321
319
327
328
332
330
328
328
259
413
430
337
331
336
339
353
356
364
375
392
407
401
354
313
303
302
298
300
303
308
316
320
322
326
325
325
242
378
380
314
312
321
324
330
345
357
371
384
396
377
334
309
304
305
309
313
314
323
319
319
315
316
316
221
461
388
315
311
312
317
321
332
347
361
381
396
381
335
313
314
314
318
320
323
328
329
329
327
327
328
189
571
392
319
320
322
326
329
339
351
368
388
403
376
325
306
306
305
308
308
316
320
323
323
323
326
305
270
489
346
314
314
318
323
330
341
353
369
385
389
345
304
296
298
298
302
302
314
317
319
320
320
324
274
372
454
336
315
317
321
326
334
345
357
373
388
391
346
307
303
305
307
310
317
321
323
331
331
331
332
334
337
231
510
433
336
331
333
336
343
350
360
374
390
398
396
348
314
308
308
311
316
320
324
332
333
336
336
336
339
298
366
453
360
333
335
336
343
349
358
369
380
393
401
362
324
315
315
317
321
326
329
333
338
337
339
341
341
244
442
397
334
340
342
345
350
356
368
380
393
399
373
323
305
303
304
306
307
312
317
320
323
326
326
328
246
424
402
334
329
331
335
342
351
362
375
390
399
388
342
315
314
313
316
316
318
323
328
330
329
329
332
285
400
388
360
331
336
336
340
348
363
376
390
402
397
361
322
312
305
308
310
314
323
324
323
330
334
332
277
361
377
327
332
335
339
345
357
367
381
390
397
362
313
297
294
296
297
298
307
307
309
308
310
313
232
425
417
328
320
321
325
333
339
352
369
384
397
382
332
304
303
306
305
305
307
313
315
317
318
322
321
228
416
381
319
322
326
332
340
350
364
381
394
400
363
316
304
306
305
307
306
310
318
321
320
322
328
328
241
398
390
329
331
334
341
348
356
368
388
400
408
372
325
311
309
310
312
313
315
313
320
327
326
328
333
331
238
415
401
328
332
335
337
341
353
367
382
398
404
383
333
311
310
305
308
306
310
315
322
324
325
330
331
268
430
402
349
331
336
341
346
353
365
381
396
407
394
348
313
306
306
306
309
312
319
320
321
320
324
327
234
435
415
329
325
328
331
338
345
356
373
390
400
382
328
304
303
305
304
304
306
312
315
318
318
318
323
242
423
416
329
325
329
332
335
343
356
375
392
404
387
336
310
308
308
308
309
311
314
314
317
319
326
329
332
335
324
276
407
379
332
335
337
341
347
356
371
387
403
408
372
325
310
310
311
312
312
314
319
320
323
322
324
326
332
333
334
336
264
428
434
347
335
335
337
340
349
359
373
393
406
404
360
324
309
305
308
306
307
314
318
318
319
328
331
330
337
315
339
367
370
336
336
342
342
357
366
379
394
408
409
369
325
312
309
310
310
313
316
322
325
325
320
319
321
311
264
392
360
316
317
319
325
332
340
355
376
390
393
348
304
291
291
292
293
295
300
304
307
310
316
314
315
319
315
239
426
373
321
324
326
332
338
348
363
381
398
405
367
319
304
306
306
307
307
309
314
317
317
321
324
330
329
329
332
312
305
425
368
331
332
335
338
344
353
369
389
405
409
371
324
311
310
311
310
310
311
316
318
321
324
326
320
324
332
329
331
334
328
258
425
385
329
333
336
338
343
349
363
380
397
408
384
330
308
302
303
301
303
306
310
312
314
316
315
316
316
318
326
325
328
331
310
309
405
369
329
332
336
340
344
351
365
383
399
407
378
328
309
309
306
306
310
313
317
319
322
322
320
321
326
325
329
331
317
293
413
372
329
332
333
334
338
346
360
377
395
404
374
324
307
303
303
301
305
309
311
315
319
320
321
318
320
326
329
329
331
332
235
441
412
330
333
337
340
347
351
364
380
396
409
402
352
314
306
304
305
307
311
316
320
322
322
320
323
329
328
328
329
331
238
446
412
330
328
331
333
340
344
355
376
393
408
400
348
309
304
304
302
306
308
311
314
315
317
319
321
326
323
327
332
290
378
404
360
333
333
334
339
345
357
374
392
406
408
369
321
304
301
301
302
307
310
315
317
316
316
321
320
320
323
322
224
416
384
314
313
315
317
322
328
341
361
380
393
376
324
297
295
296
297
300
306
307
312
313
311
316
322
320
320
322
325
233
443
417
323
322
324
327
334
341
352
371
391
405
398
349
312
304
305
307
305
309
312
317
319
323
320
321
328
326
327
327
326
244
400
387
324
327
331
335
340
347
360
381
397
409
391
346
315
309
309
306
309
311
314
316
316
315
314
323
321
323
323
321
237
404
384
320
322
325
329
338
347
360
381
399
413
393
342
315
308
310
308
308
311
314
315
314
318
321
321
323
326
327
236
441
414
333
331
333
335
338
353
360
381
397
406
398
347
311
305
306
306
310
312
317
320
322
323
324
323
326
323
323
325
295
308
455
344
321
322
324
327
331
342
354
375
393
404
373
324
305
305
304
305
306
309
315
316
321
322
326
327
327
326
287
356
406
351
323
320
323
322
326
334
347
366
380
387
357
308
294
293
295
298
301
304
309
309
317
322
327
328
329
334
293
378
384
361
329
331
333
335
340
344
360
375
388
394
362
314
299
298
299
300
303
309
312
313
316
318
325
326
327
328
320
261
403
378
323
327
328
331
333
343
354
373
389
398
376
326
305
302
301
302
304
307
312
314
319
322
326
332
333
333
334
324
276
399
384
331
335
336
337
338
342
352
367
379
388
366
317
292
295
297
297
297
299
302
304
310
315
318
321
321
324
331
309
297
444
360
333
335
340
342
350
362
374
394
412
420
396
345
321
319
318
316
316
318
319
319
327
324
331
331
328
332
287
408
395
360
333
334
339
342
346
355
370
386
402
403
365
312
296
295
292
295
297
304
305
306
313
316
317
314
321
322
210
506
398
323
324
326
329
332
340
352
370
391
408
402
350
313
308
308
303
305
309
311
318
320
324
325
327
331
315
258
466
362
322
322
325
330
338
343
353
372
389
398
370
321
304
303
303
302
304
306
311
313
314
320
321
324
325
329
332
245
465
446
337
329
331
332
337
343
353
368
384
400
407
370
328
316
321
316
316
319
318
317
321
322
331
327
324
333
336
263
454
427
356
347
348
353
356
362
372
384
395
407
409
370
326
314
314
313
312
313
313
312
318
320
320
322
324
325
204
504
393
319
322
322
324
329
338
348
364
382
395
387
337
305
302
302
303
303
306
308
314
316
316
321
321
325
209
498
404
322
323
325
329
336
343
350
365
381
395
388
336
306
301
303
302
305
306
310
311
315
314
312
312
316
318
238
447
438
331
320
321
323
330
334
342
355
373
387
396
358
317
310
310
310
311
312
316
322
325
328
329
331
336
322
291
448
374
335
337
340
346
353
363
378
394
407
414
385
336
321
322
323
327
333
333
341
344
344
342
344
344
299
363
469
360
339
344
346
349
357
367
380
391
404
409
370
324
314
313
316
316
319
327
329
332
333
331
333
327
233
463
379
327
331
334
338
346
356
368
382
394
402
377
325
307
305
307
310
313
315
319
322
322
323
324
327
233
403
397
329
327
328
336
341
352
361
373
385
396
388
339
313
304
304
312
310
320
326
329
329
334
335
331
295
352
379
337
340
342
345
355
363
374
389
401
411
388
341
320
317
318
318
320
321
321
319
315
314
311
210
446
362
305
309
310
318
325
336
348
365
378
388
363
315
300
300
297
296
301
305
307
308
310
311
281
307
447
336
310
313
316
316
325
337
348
367
382
387
344
304
297
301
299
302
307
311
314
316
319
321
204
497
374
319
322
326
332
340
349
361
376
390
400
373
326
311
313
316
318
326
329
332
331
331
336
318
307
394
374
335
339
342
350
357
363
380
392
404
411
376
335
316
314
322
317
325
327
328
329
334
328
294
344
373
328
335
339
345
352
360
370
381
390
397
363
320
307
310
309
308
317
317
320
320
320
324
303
283
443
353
321
326
329
335
342
351
362
380
395
399
359
316
309
310
309
308
317
316
321
323
328
329
282
368
450
349
329
332
337
343
351
359
371
385
399
400
354
317
313
313
312
315
314
324
327
327
328
327
332
230
479
431
336
332
334
334
340
344
356
371
387
401
394
339
309
308
310
310
311
313
313
319
321
320
320
322
322
225
414
382
321
323
325
331
335
346
355
368
380
392
375
328
310
308
311
313
314
313
323
322
326
325
328
328
240
444
426
330
325
329
333
342
351
361
373
388
398
396
