341
342
341
352
361
372
393
404
409
406
362
323
307
303
305
307
306
314
323
317
323
326
329
328
333
331
315
343
351
373
338
336
340
346
348
359
370
387
405
415
415
380
335
317
312
310
311
315
320
321
320
322
320
326
323
328
332
334
338
325
307
381
369
329
328
333
336
342
349
366
393
409
415
417
384
336
311
308
309
304
310
308
313
312
314
311
313
323
316
319
322
319
319
252
411
369
322
324
324
327
335
336
352
372
381
393
398
388
338
304
293
293
293
291
298
299
303
306
305
314
318
320
324
326
324
254
394
371
328
333
332
339
339
347
366
381
398
411
410
395
349
314
308
308
308
312
314
321
320
319
318
319
322
330
328
330
335
336
254
455
400
338
337
336
336
343
352
362
380
395
408
414
402
359
317
312
308
306
309
314
315
316
317
319
318
315
326
325
322
327
330
305
333
343
360
331
330
335
336
340
348
364
384
395
409
404
381
335
313
307
304
307
307
309
315
314
316
321
322
324
327
331
334
315
343
342
371
336
338
338
343
352
363
374
397
403
413
415
388
340
319
311
311
313
315
320
318
326
325
327
324
329
333
335
337
338
285
422
379
359
339
343
342
343
352
358
371
392
409
407
409
372
328
312
309
307
311
309
312
312
318
318
316
320
327
331
332
335
333
324
296
390
379
334
335
341
342
351
360
372
385
405
414
417
388
345
312
312
311
311
312
315
314
319
319
319
325
319
320
328
324
328
332
335
248
453
396
333
331
328
333
341
349
357
374
394
402
409
398
356
319
305
302
302
304
304
302
307
304
306
311
309
315
314
317
322
320
244
416
375
323
324
329
327
333
342
352
370
385
402
412
395
350
316
303
303
309
309
314
312
315
318
317
322
326
324
324
326
316
300
334
358
320
326
326
331
340
350
361
379
398
406
412
388
342
317
312
315
315
319
323
324
328
324
331
334
336
337
337
341
322
321
411
376
342
348
346
347
352
361
374
393
409
418
420
387
344
317
316
309
313
308
311
314
321
320
322
323
324
323
329
248
445
383
332
326
328
331
338
344
361
376
395
405
414
395
346
310
306
306
305
312
314
319
322
318
324
328
328
330
331
329
332
273
377
377
329
332
331
331
339
348
361
376
393
402
410
382
342
309
296
297
296
300
303
304
311
318
313
313
318
324
307
317
315
362
323
335
335
344
351
360
379
395
409
423
419
394
348
328
323
323
324
330
332
336
341
336
332
337
339
329
319
360
382
338
347
345
348
355
369
377
391
402
413
405
377
334
310
303
306
305
307
312
318
315
315
317
321
322
324
256
412
369
329
328
332
330
340
346
362
382
396
410
411
377
333
308
308
304
316
312
319
319
326
330
330
331
332
337
328
283
373
378
333
333
334
336
341
351
364
384
391
400
401
371
322
298
292
294
293
296
293
299
303
300
298
303
304
309
310
313
315
308
267
337
355
314
313
316
319
330
342
353
366
385
394
398
380
334
301
290
297
301
303
305
308
310
315
322
314
324
324
330
311
355
351
381
341
341
349
351
347
366
377
396
413
421
418
390
344
318
318
316
315
318
320
322
325
325
333
328
329
330
335
311
343
384
373
334
339
345
340
350
357
374
386
408
415
418
376
335
316
315
310
313
310
315
313
318
319
318
320
313
320
327
325
321
332
291
373
361
359
328
329
333
339
344
362
364
379
394
401
400
370
328
307
299
298
304
308
310
312
313
312
313
323
321
328
329
327
255
429
384
344
334
342
339
350
357
372
388
403
415
421
402
356
325
314
308
315
310
320
321
319
324
326
336
331
332
337
336
253
453
398
339
339
339
338
345
353
369
388
399
411
422
396
351
318
310
306
308
309
313
319
319
317
322
319
322
325
326
327
326
335
331
262
396
384
327
332
338
329
339
351
357
377
395
404
412
395
343
312
309
299
300
304
303
309
310
315
315
313
315
321
325
325
329
329
280
399
368
354
332
330
336
336
342
353
368
384
398
409
404
364
325
302
299
297
300
301
307
306
312
310
311
311
319
316
320
324
327
289
400
346
360
327
332
334
342
348
360
371
392
407
415
412
382
336
317
314
310
314
317
318
320
324
326
320
323
323
327
327
331
336
335
255
455
394
337
331
336
339
344
351
362
387
403
413
423
409
357
322
309
307
309
312
312
314
316
317
322
324
321
322
329
331
330
331
333
293
371
376
359
332
334
337
340
347
358
369
385
402
413
410
378
332
311
304
304
305
309
310
310
313
315
314
313
314
314
319
320
322
319
325
325
254
396
373
327
328
331
332
337
351
360
376
395
404
409
397
353
320
305
308
306
308
312
318
318
320
322
322
327
330
334
336
340
339
342
297
418
379
367
342
345
344
347
358
362
380
397
415
421
420
385
341
317
315
315
313
315
322
319
321
324
326
327
327
324
319
332
330
330
332
338
300
352
373
365
332
333
336
342
350
359
371
391
404
419
412
385
341
313
309
309
303
305
306
309
311
311
312
314
315
317
316
312
322
324
324
323
328
249
442
375
331
326
326
332
334
347
355
368
382
400
403
399
364
323
304
297
299
304
307
309
312
312
314
319
320
319
319
332
331
332
338
340
278
451
388
360
343
346
346
352
354
367
382
396
409
423
417
382
341
316
311
308
309
310
313
316
317
319
321
321
316
326
318
321
331
329
325
333
336
249
458
400
333
329
330
332
337
346
355
365
382
399
403
399
360
319
302
298
297
299
304
301
308
309
312
313
313
310
315
320
320
321
324
323
284
393
343
358
330
332
336
339
348
360
373
388
404
414
418
393
344
319
310
310
310
316
319
319
322
325
324
326
325
326
332
330
333
331
333
267
451
393
352
334
337
341
342
349
360
374
396
405
415
412
374
333
312
308
311
311
316
318
314
321
320
320
317
316
319
322
324
329
328
331
272
431
379
345
331
331
333
331
343
347
365
380
394
411
405
370
328
309
300
300
300
303
306
310
313
309
311
316
324
325
328
327
335
315
341
346
374
335
342
343
348
359
366
379
396
408
419
422
393
351
321
312
316
318
318
321
325
321
326
331
326
327
330
336
332
337
343
333
282
407
386
341
342
351
356
362
355
375
389
403
415
416
405
365
317
308
297
304
307
310
314
308
311
303
312
288
311
312
316
317
318
242
399
377
326
323
329
332
332
344
358
369
389
400
407
402
352
317
306
313
310
312
306
319
319
323
321
321
331
329
335
334
341
255
462
407
349
337
341
345
351
354
364
382
399
414
422
411
368
327
312
307
309
308
311
315
317
316
318
312
317
328
326
327
328
330
320
294
377
369
319
321
327
326
333
339
353
368
394
403
397
383
346
302
292
293
297
290
296
307
300
307
318
304
307
310
318
320
315
274
350
376
323
331
335
342
353
354
374
385
404
416
425
405
354
322
317
313
317
323
321
324
326
325
329
330
335
342
332
338
342
288
373
407
357
335
340
333
347
348
360
374
390
410
414
412
374
337
308
302
302
308
300
305
310
309
304
309
309
316
321
322
323
330
249
432
389
333
328
330
327
333
348
355
365
386
394
410
398
356
320
306
309
310
309
317
313
320
327
324
326
333
333
337
343
346
289
429
403
370
349
348
347
356
356
370
384
399
415
426
418
384
334
318
314
314
318
310
320
322
322
318
319
316
321
326
322
324
330
322
248
436
391
327
323
333
323
336
348
356
368
389
407
412
397
357
321
302
298
299
299
307
312
312
319
311
318
324
330
334
335
335
322
336
349
375
339
338
346
345
357
365
374
392
406
416
421
395
350
324
317
318
320
320
323
324
321
330
322
324
326
329
330
331
336
335
293
373
375
358
330
335
333
337
344
353
365
382
399
408
401
374
322
305
295
293
293
298
304
300
302
305
304
308
307
313
315
319
319
324
262
438
351
330
326
319
329
332
339
352
359
372
385
396
396
359
328
308
299
305
307
303
310
311
316
314
318
322
322
314
321
327
295
385
335
349
322
326
333
339
347
357
361
385
394
403
400
379
338
314
312
314
322
320
322
322
327
323
328
330
330
331
335
336
292
426
371
357
335
341
346
350
351
363
374
393
407
412
413
380
337
319
314
311
311
320
316
323
323
326
331
329
334
329
330
334
331
264
479
381
336
331
333
332
339
347
355
367
391
400
411
408
364
322
308
307
303
305
306
309
316
316
314
315
326
326
324
328
328
327
311
355
365
361
338
338
341
344
348
362
375
392
402
412
420
392
345
324
314
318
316
312
320
322
328
327
324
321
322
329
326
331
327
328
286
416
355
347
327
328
331
336
339
349
362
379
395
399
401
374
331
307
302
301
305
308
307
311
314
311
312
313
316
323
319
329
320
301
361
353
324
327
327
333
341
351
356
378
394
403
407
384
339
314
304
302
305
307
310
313
318
319
315
324
326
331
329
334
334
334
293
385
408
354
336
339
339
338
344
354
373
390
403
416
416
386
336
319
314
313
323
314
319
319
318
320
319
317
323
326
324
320
318
321
314
265
387
352
319
321
321
327
326
340
353
367
386
404
408
386
341
311
302
302
300
300
307
306
314
313
316
317
316
322
323
331
331
332
257
460
386
344
333
335
337
339
352
361
374
389
406
413
408
377
333
314
311
314
313
315
320
318
317
323
321
325
326
330
328
332
337
337
257
460
391
344
334
342
340
347
354
366
380
398
411
414
408
367
329
313
312
312
319
321
320
321
324
324
321
321
319
333
325
325
329
330
292
391
368
353
334
330
330
340
343
356
366
379
395
402
408
380
339
312
309
305
312
311
316
318
322
324
323
325
333
331
328
333
337
300
375
365
364
333
341
338
342
353
361
370
384
401
407
412
384
338
314
310
312
307
316
317
318
319
319
324
330
327
330
333
334
322
332
359
371
335
338
335
340
348
357
369
387
398
414
412
384
343
314
310
312
309
314
316
317
320
320
319
321
329
327
329
332
332
283
416
375
357
333
335
336
340
343
354
366
383
398
406
402
367
328
307
306
300
304
306
307
306
311
307
310
314
319
318
322
320
326
326
264
404
367
325
328
329
329
334
343
353
369
385
397
397
387
346
310
299
294
295
299
301
302
301
307
307
307
311
313
311
314
320
317
257
439
360
336
331
329
336
340
350
365
372
394
404
415
411
380
335
322
319
317
322
323
324
330
327
332
331
332
334
335
337
338
340
273
458
389
348
343
343
346
347
356
367
383
397
409
412
405
364
324
311
305
311
313
314
316
320
321
320
320
321
320
327
325
330
329
332
296
381
374
359
338
335
338
342
348
355
368
385
400
406
408
385
340
314
307
307
305
308
307
311
310
314
311
312
313
317
320
318
322
321
320
258
428
349
328
318
325
323
330
339
345
356
370
384
391
393
365
326
302
304
300
300
310
306
308
311
309
312
319
325
318
322
329
311
334
342
346
328
333
339
341
346
357
374
385
391
400
401
381
341
319
311
310
310
316
317
319
318
322
325
328
329
330
336
339
334
323
403
367
345
349
350
358
362
369
380
399
413
424
427
404
363
331
322
319
320
324
325
327
328
327
328
332
335
336
331
334
334
331
274
425
366
331
332
335
336
339
347
357
376
391
406
410
394
347
314
303
300
302
303
303
307
308
312
310
310
312
315
325
321
321
324
323
303
325
369
356
322
329
328
329
336
346
356
374
391
404
412
386
343
311
301
296
299
300
307
307
309
313
314
313
315
321
316
320
321
320
282
399
358
348
327
325
331
333
340
348
363
379
395
408
410
379
333
314
305
303
303
308
313
318
323
325
326
328
325
331
329
330
332
333
276
449
369
343
330
331
324
336
348
351
370
375
400
402
390
361
321
305
286
293
298
303
311
319
325
324
327
337
335
337
337
343
276
478
391
357
344
346
351
357
361
374
390
403
419
426
419
375
337
318
319
314
318
316
322
320
324
322
326
326
330
333
333
332
336
279
445
385
353
331
337
333
339
347
362
369
392
408
416
415
381
335
311
306
306
306
310
310
314
316
313
315
315
319
326
325
323
325
328
304
338
369
357
325
327
331
334
343
348
366
380
404
410
413
387
339
312
304
302
306
306
304
308
312
313
315
319
310
316
325
324
324
328
334
329
276
397
368
327
334
331
334
334
346
366
369
395
403
409
394
346
311
298
298
295
302
306
304
311
315
317
317
318
311
309
321
321
324
315
316
283
370
363
353
325
327
331
340
348
360
372
395
411
422
421
395
344
320
307
302
305
311
307
316
315
314
316
323
312
312
313
322
318
325
323
321
264
448
359
342
332
335
338
348
350
363
382
392
408
414
417
382
335
314
313
312
313
314
312
314
315
319
320
324
322
329
334
337
336
336
337
326
317
391
375
325
337
341
344
342
351
361
377
397
407
413
394
351
318
301
300
306
303
304
313
314
314
317
317
319
324
321
320
328
328
328
328
331
268
458
370
337
330
337
329
337
344
356
372
391
405
420
419
386
337
315
310
309
318
310
314
310
301
317
303
287
302
282
293
297
286
276
291
291
293
304
318
321
299
316
324
326
342
348
362
375
389
400
412
398
363
332
319
321
323
327
332
332
335
338
341
347
347
346
356
354
356
364
361
296
503
402
365
356
360
360
365
373
377
391
411
426
431
423
386
340
320
316
311
313
315
315
315
318
313
311
313
316
321
320
319
321
318
313
295
369
345
322
316
317
324
330
342
353
371
384
403
406
391
348
316
304
301
310
303
308
312
315
316
319
322
324
326
320
325
323
325
327
262
435
355
328
327
330
335
344
346
358
373
390
406
416
403
359
316
303
300
296
301
303
309
314
314
316
320
316
322
324
322
320
326
328
321
250
450
356
322
327
332
336
332
346
360
371
390
406
414
413
370
328
312
308
311
315
317
320
318
327
322
328
327
332
332
337
342
337
344
344
272
485
392
348
344
346
342
354
361
369
385
400
416
421
418
382
340
317
314
309
312
316
317
314
318
323
324
324
321
323
328
330
328
332
333
340
281
413
380
352
330
333
336
340
344
357
362
381
396
398
418
390
339
314
302
308
307
302
307
312
304
308
317
312
312
315
314
322
329
326
327
331
332
292
374
368
332
331
338
343
340
354
362
378
395
407
414
405
360
327
313
305
309
313
309
313
318
316
320
318
323
318
323
327
330
327
327
335
332
273
418
371
330
335
335
339
346
351
363
379
393
403
409
404
369
327
311
309
307
313
313
312
316
315
316
319
321
319
323
322
324
327
327
330
331
269
439
368
335
333
336
341
343
351
361
373
391
405
412
403
374
331
311
305
307
312
313
318
320
319
320
322
325
320
320
322
328
329
328
331
332
275
443
364
344
333
333
335
338
344
354
365
384
395
400
405
378
334
312
307
305
305
307
312
310
310
312
315
319
316
321
322
326
326
323
329
330
269
443
367
344
329
336
336
343
345
355
369
382
395
405
405
381
336
311
304
307
307
310
311
314
313
316
316
320
315
324
327
327
327
328
330
330
276
401
364
330
332
334
338
342
351
359
375
389
403
406
402
363
325
307
304
306
306
309
311
314
312
314
317
315
313
319
321
324
325
324
330
272
448
353
343
330
333
337
342
348
356
369
384
399
404
408
386
342
317
310
311
311
317
316
319
322
321
322
323
327
334
333
336
336
339
294
420
364
359
336
340
342
345
352
361
373
389
404
412
414
389
344
318
310
307
310
314
315
317
320
321
320
323
323
324
332
329
331
333
333
283
432
369
348
334
337
336
343
349
360
370
389
403
414
412
388
344
318
312
313
314
319
319
323
320
325
324
325
326
329
332
330
332
331
335
273
458
374
339
335
335
336
342
347
356
369
388
404
414
407
374
330
311
305
307
309
308
311
314
316
317
319
316
317
318
326
322
323
325
328
285
413
361
345
328
329
333
335
344
350
364
384
400
410
407
378
335
308
299
302
305
305
308
311
312
311
310
312
314
316
322
322
322
326
329
282
421
362
344
332
335
335
338
345
351
366
386
400
410
408
381
334
310
304
303
304
304
308
310
316
315
317
316
318
320
318
325
321
324
325
329
299
381
360
353
333
334
332
335
339
352
365
386
398
413
415
394
348
317
312
309
314
318
319
321
320
322
322
325
327
326
327
336
334
334
334
336
337
275
417
372
339
338
341
342
347
350
363
379
391
407
412
404
364
324
305
299
300
303
306
309
312
314
310
314
312
312
309
320
322
320
323
324
325
276
387
359
332
334
333
338
346
356
366
376
396
408
411
408
373
331
315
310
313
313
319
318
320
323
325
325
324
328
332
333
332
336
334
273
461
375
348
336
341
342
346
348
360
372
389
404
414
412
380
337
315
304
310
310
315
315
316
318
319
318
320
319
322
332
328
332
333
337
320
330
368
369
335
336
341
343
346
356
367
385
401
413
417
403
355
320
309
308
308
311
310
315
319
315
318
321
322
320
324
329
329
330
330
335
290
402
367
352
333
336
338
337
347
355
367
382
401
408
411
389
339
310
303
301
304
306
305
308
309
315
315
317
318
319
323
323
324
327
327
330
263
456
378
334
333
336
334
338
344
353
367
384
400
409
404
376
333
310
307
304
305
308
308
311
312
314
314
318
319
318
322
329
324
330
330
334
309
358
364
360
335
335
336
336
346
351
365
381
398
409
415
396
352
322
309
308
308
308
311
312
315
316
320
320
322
321
320
325
327
327
330
332
335
269
449
378
340
336
340
339
347
355
365
377
390
409
416
410
383
338
320
314
313
317
319
323
319
323
325
322
320
324
321
322
330
333
329
330
332
320
312
345
360
327
328
331
333
337
348
355
374
383
398
407
395
355
319
306
302
305
308
310
315
316
318
321
320
325
329
326
333
330
338
294
414
353
360
340
342
340
347
353
362
373
389
408
420
418
392
348
323
311
310
310
315
315
317
321
323
326
320
323
326
332
329
330
331
332
317
336
366
362
333
334
335
339
343
353
365
380
394
409
411
393
351
320
312
309
307
310
311
314
320
319
320
324
322
326
332
331
330
332
333
313
347
367
361
335
336
340
341
347
357
370
382
397
409
413
392
350
318
310
309
307
311
311
313
315
313
317
316
314
320
320
320
323
325
323
269
381
356
323
328
325
327
334
340
352
366
380
393
397
387
355
317
303
298
299
303
306
309
311
315
315
321
327
330
329
330
334
338
274
423
370
344
343
347
351
355
363
371
387
404
413
420
414
378
334
317
317
316
320
320
327
328
326
326
325
324
329
332
331
330
333
333
264
449
375
332
331
335
334
340
346
356
370
387
400
406
401
366
323
308
306
306
308
311
311
315
316
315
316
320
325
324
327
326
328
322
284
381
360
328
328
332
332
339
350
359
373
388
404
405
395
351
318
303
302
303
303
307
309
310
312
312
314
320
319
322
321
327
318
295
349
354
325
328
333
338
342
351
364
377
397
411
419
402
360
323
316
315
318
317
321
320
325
323
323
324
331
333
330
330
332
335
269
450
379
339
340
333
339
347
348
360
373
392
407
420
412
375
330
316
319
318
318
321
319
323
320
320
314
324
327
323
325
328
332
322
295
383
365
324
331
331
332
339
344
353
375
393
396
397
377
334
299
281
277
279
276
284
286
287
293
297
290
305
304
309
317
317
291
352
329
350
326
333
335
341
347
354
367
381
401
412
414
392
348
326
311
309
312
316
319
327
323
330
329
336
338
339
337
338
286
464
372
364
346
348
349
353
359
368
381
397
414
428
423
392
347
325
318
316
319
320
323
323
323
326
328
333
331
330
333
332
330
283
401
365
332
331
332
336
336
347
360
373
391
404
413
397
357
317
309
304
306
306
310
310
317
316
315
319
326
321
324
322
326
322
297
364
359
327
332
333
335
340
349
355
373
389
400
402
388
343
313
301
298
298
302
303
303
309
308
311
314
319
314
321
321
324
305
346
327
360
330
333
338
341
352
357
372
385
403
414
418
400
353
324
318
314
316
316
322
323
323
327
326
331
335
333
334
339
339
335
291
404
372
334
339
342
344
350
356
364
381
394
409
416
401
359
324
308
310
309
311
311
314
314
317
316
319
324
319
324
326
327
327
260
427
363
327
328
331
331
337
345
357
372
387
399
408
398
357
319
305
305
301
304
304
309
313
311
315
311
315
316
321
322
326
272
442
344
340
330
328
331
338
348
353
369
384
398
407
408
377
333
314
306
307
308
312
314
318
318
321
322
325
323
325
328
331
271
457
370
349
333
337
338
347
353
361
373
392
405
412
408
377
330
315
308
311
313
315
318
320
320
321
323
328
329
330
331
332
331
287
394
370
333
337
337
340
347
354
364
379
396
410
414
402
355
319
307
308
309
310
310
314
311
317
319
324
325
327
328
326
330
327
283
392
372
322
330
335
336
341
352
362
375
392
407
414
395
352
315
307
304
305
306
306
313
311
316
319
318
324
325
325
325
331
320
319
344
365
331
335
340
341
348
357
368
385
399
411
413
394
349
320
311
307
309
314
312
316
319
317
320
320
324
326
327
326
332
331
290
395
363
349
333
333
337
337
345
353
364
381
396
405
407
379
335
309
305
303
306
309
312
318
319
320
323
319
326
328
328
330
328
334
277
440
371
347
332
334
337
340
345
357
368
386
398
405
404
374
331
310
306
302
302
308
308
312
314
315
317
318
322
323
320
323
329
279
426
339
348
332
333
333
338
344
359
366
380
393
402
403
377
337
314
308
308
311
314
318
319
321
320
325
329
328
333
332
335
295
412
365
360
336
338
338
342
347
357
370
386
405
414
413
383
340
314
308
306
308
307
312
316
318
320
315
321
323
325
324
328
326
325
262
448
373
330
334
338
337
339
346
357
371
388
406
410
404
363
322
307
305
303
308
311
313
317
319
321
324
322
328
331
328
331
335
331
275
445
377
345
334
338
336
340
345
353
366
382
398
407
407
377
334
308
304
307
303
308
307
309
315
315
316
316
322
321
321
324
327
327
270
405
361
332
336
337
341
345
354
367
383
397
409
421
411
366
327
313
310
315
317
319
321
324
326
328
328
327
333
336
337
337
341
339
269
460
379
340
339
339
341
346
351
362
378
391
408
416
406
363
323
310
306
307
306
308
308
313
315
318
315
317
323
323
323
325
326
328
265
412
361
325
328
330
332
337
346
355
370
386
401
407
395
357
319
304
304
301
305
309
312
315
317
318
326
327
326
329
332
329
292
375
371
339
340
342
346
350
359
367
385
400
412
416
397
353
321
310
307
309
312
315
316
318
317
316
318
319
326
325
328
326
330
295
386
369
352
327
332
333
336
342
353
363
379
396
411
407
384
336
308
300
302
305
307
310
309
314
313
316
315
320
323
322
323
326
326
271
397
366
327
331
332
336
343
348
360
372
388
403
407
395
352
315
303
301
300
304
304
311
310
315
316
315
322
323
324
325
331
278
452
362
354
336
338
343
345
354
362
377
390
406
418
412
379
337
314
313
311
314
318
321
321
323
325
323
327
332
334
335
334
335
330
289
406
373
336
339
340
342
345
353
366
382
399
411
414
397
351
317
306
307
307
309
310
314
313
316
315
316
319
321
319
319
322
324
285
402
351
345
323
331
329
332
340
350
361
379
395
400
403
376
334
305
299
299
301
304
310
310
316
316
321
327
325
326
331
333
334
293
374
368
339
341
345
348
358
363
377
391
404
418
422
401
358
323
314
314
314
318
319
319
323
322
324
324
324
327
326
330
328
331
267
462
375
343
334
335
337
340
349
359
371
390
404
410
407
371
329
309
307
305
309
311
312
317
320
323
318
324
326
326
327
327
327
327
264
422
373
331
333
337
337
342
347
359
375
394
404
410
395
358
323
309
306
306
308
309
314
317
319
315
316
318
322
322
325
322
326
309
320
339
353
323
326
329
333
339
350
360
377
390
401
405
388
342
315
304
300
300
306
306
312
318
317
319
322
330
329
327
330
333
305
384
348
366
340
338
344
348
350
359
371
388
406
414
416
392
340
319
304
305
306
311
314
317
321
333
312
316
320
326
321
322
325
327
259
457
374
334
331
336
338
340
347
357
371
389
402
407
400
368
327
311
307
304
307
307
305
309
311
312
313
315
322
319
322
324
326
265
439
359
334
327
329
331
339
347
356
368
389
398
407
404
369
325
311
309
309
314
314
319
317
320
321
324
328
329
328
333
336
268
465
372
345
340
339
341
344
355
363
377
397
413
415
411
369
330
314
310
311
314
314
315
320
323
318
323
329
325
327
329
332
307
371
359
361
336
335
338
344
349
355
373
386
402
408
409
380
339
313
307
309
308
307
311
315
319
317
323
329
325
328
332
329
286
427
361
354
336
337
340
345
351
360
373
391
403
415
409
370
332
310
311
306
308
312
313
317
320
320
322
324
328
327
329
330
336
299
400
376
359
341
342
344
342
350
354
371
386
403
412
406
376
330
309
304
306
302
298
307
309
306
308
309
314
316
319
319
319
322
262
437
351
330
323
325
323
331
339
352
365
381
397
404
394
360
326
306
303
307
308
308
317
322
321
324
324
329
326
332
331
336
290
421
368
359
340
341
344
347
353
361
377
393
411
419
413
377
332
313
310
305
309
310
316
318
321
319
317
321
325
324
322
324
330
323
277
399
366
327
330
333
334
338
347
358
374
393
404
412
385
344
313
305
302
298
309
302
306
308
309
309
312
317
319
320
316
321
325
266
437
356
334
320
329
331
327
345
349
367
387
388
402
390
356
314
304
294
310
301
307
318
317
313
315
319
333
322
329
324
335
301
393
348
361
335
338
340
344
354
359
374
395
408
415
415
378
339
320
310
311
313
315
322
322
323
324
326
328
333
331
332
333
342
340
277
462
379
341
340
336
343
346
353
357
376
395
402
416
406
365
325
306
304
304
306
307
308
310
317
313
320
318
325
325
327
328
321
327
276
408
363
327
335
334
340
340
349
360
368
392
401
408
397
353
324
311
310
310
314
315
316
322
327
321
321
325
337
333
334
336
337
289
426
361
369
342
344
346
346
354
363
372
388
408
416
412
379
343
322
312
318
317
321
314
321
318
321
319
319
320
324
327
328
332
332
305
337
369
358
332
334
332
329
346
346
362
378
397
404
413
381
338
311
305
305
308
307
313
321
313
317
317
310
315
327
320
323
331
325
324
300
353
362
331
335
335
333
343
347
356
373
388
397
408
387
349
316
304
299
302
306
304
315
309
321
314
320
322
326
324
326
332
325
286
373
367
325
334
338
342
345
356
363
378
397
416
413
391
352
319
309
308
304
313
313
311
320
318
315
315
316
330
325
326
331
335
315
317
365
363
330
333
331
338
340
357
364
380
398
410
409
381
342
311
309
306
304
308
310
317
315
319
314
321
324
322
323
327
327
332
300
353
346
359
326
329
337
341
347
356
363
388
396
407
407
380
339
314
307
304
308
313
314
317
322
324
321
322
335
328
331
335
340
336
275
453
368
352
339
345
347
351
361
369
382
397
415
424
409
372
332
314
317
314
316
320
318
326
326
326
323
323
325
334
333
329
333
336
327
308
383
370
337
340
338
342
347
355
362
380
396
410
415
393
344
319
310
309
305
310
312
313
318
314
319
317
318
315
326
319
324
324
327
295
377
345
349
329
330
332
330
343
358
361
377
396
394
404
381
334
313
299
301
304
308
303
311
315
315
310
316
317
318
327
319
328
328
265
445
364
337
329
333
337
346
349
357
371
390
408
411
406
358
328
309
308
309
305
314
317
323
311
322
319
318
321
325
330
328
326
334
331
269
456
368
337
328
334
336
341
342
359
373
385
399
409
398
365
326
311
311
303
306
313
313
312
318
319
321
319
318
322
329
329
324
335
332
269
444
372
336
335
332
336
341
345
353
367
390
401
404
402
365
327
310
301
305
305
304
315
313
311
318
314
318
321
324
322
333
327
336
271
441
360
346
335
340
337
344
354
364
382
400
408
418
410
377
334
322
315
313
310
320
317
319
323
322
325
327
333
331
332
332
340
337
274
460
382
345
346
348
348
350
356
371
385
394
410
426
408
378
332
323
313
320
321
312
317
326
325
323
330
327
327
337
333
337
335
338
326
288
395
366
334
336
337
336
342
354
361
379
398
404
411
396
347
318
311
304
308
308
312
309
313
319
316
322
320
324
326
327
325
326
329
323
297
378
366
331
339
336
339
342
353
360
380
391
404
408
390
349
315
312
305
312
301
311
312
311
313
314
311
314
324
319
319
316
321
321
273
382
351
325
324
329
328
343
343
358
369
386
400
407
397
355
324
308
309
305
313
318
316
314
326
319
324
323
336
327
333
335
335
305
403
362
365
338
341
344
342
354
360
375
386
403
414
416
381
337
314
309
304
304
310
311
309
308
321
318
313
320
321
322
320
322
325
324
267
414
360
329
326
332
337
342
352
357
372
388
410
405
399
356
319
309
301
305
303
312
312
323
319
319
318
322
317
326
327
329
330
333
298
395
351
355
335
328
334
341
346
354
363
381
405
410
411
388
335
310
306
305
310
311
314
317
323
321
317
326
325
329
331
331
333
336
327
312
371
368
334
339
343
344
350
364
369
390
395
411
414
388
346
320
318
312
304
316
319
322
320
322
326
330
320
330
337
330
334
334
336
335
281
423
370
347
335
337
341
343
347
355
375
386
406
409
399
354
317
308
301
295
299
303
308
309
311
312
310
318
317
314
320
323
324
318
301
352
351
332
337
334
341
349
354
374
378
400
408
423
393
353
327
313
308
307
310
317
322
316
322
321
321
324
325
331
333
324
333
332
275
451
375
342
339
336
344
338
348
358
369
381
402
405
401
363
331
306
306
304
305
307
305
316
315
317
306
314
312
314
320
320
324
327
339
284
424
365
353
335
338
333
342
351
354
367
385
400
412
414
379
342
312
308
306
301
310
312
317
319
319
322
324
326
326
327
325
315
327
328
248
404
338
303
305
311
323
305
332
334
355
370
394
396
392
355
315
313
311
317
324
338
334
339
337
348
341
338
339
341
348
340
356
341
358
349
306
402
376
344
348
350
349
343
365
364
383
397
413
416
402
361
333
312
317
317
316
321
325
320
323
323
329
323
327
320
328
320
331
351
307
272
440
348
340
321
323
325
339
334
353
360
385
387
391
395
361
315
303
300
294
302
297
314
313
312
308
315
322
316
317
324
333
316
331
344
368
337
344
360
340
359
362
375
392
410
416
416
407
357
319
317
315
309
320
326
314
321
322
319
324
327
327
326
332
330
287
433
366
354
332
332
327
334
340
350
366
383
398
406
401
381
337
312
309
300
312
303
315
323
310
317
334
314
321
316
337
318
291
375
362
336
333
341
329
350
350
366
379
397
404
405
392
356
317
308
301
315
306
315
325
326
329
317
322
331
317
268
446
361
333
335
339
336
336
351
362
375
385
405
414
395
356
320
310
305
297
308
310
309
311
320
317
328
313
319
330
317
327
261
445
362
340
325
332
333
336
346
362
361
391
399
411
404
371
328
316
301
306
307
311
313
313
316
340
316
320
322
326
326
283
404
351
348
327
333
344
345
348
356
366
379
397
404
402
373
326
305
309
303
305
304
309
312
317
327
316
318
314
319
321
296
375
320
345
330
329
327
337
346
354
375
380
394
408
412
379
338
314
314
302
311
319
321
324
337
331
324
323
328
329
315
349
335
366
337
335
340
346
354
360
374
390
406
412
412
385
343
310
310
313
311
315
316
321
318
326
336
335
317
327
324
330
274
435
358
344
331
333
337
343
349
362
374
387
401
412
407
372
332
312
312
305
317
312
313
314
323
323
311
320
338
336
319
330
327
332
286
396
354
354
325
336
333
335
342
356
360
382
397
399
403
377
330
306
307
305
305
307
310
312
312
310
321
322
324
323
327
323
341
322
269
411
359
335
330
327
335
337
346
364
371
392
402
410
401
361
318
320
303
318
313
324
316
327
316
317
327
320
325
317
330
329
333
267
456
380
350
333
338
335
346
350
361
378
396
408
417
410
381
339
311
312
311
315
314
324
322
320
325
319
326
326
333
330
336
332
301
391
355
366
329
331
336
335
339
356
369
383
392
405
402
378
329
310
305
297
303
304
305
306
306
302
310
315
317
322
322
317
320
325
275
413
348
331
343
326
340
327
345
356
364
385
394
410
400
368
328
314
313
312
315
322
321
319
326
326
323
334
332
335
337
343
292
444
371
357
339
337
334
337
346
358
374
386
397
407
408
369
330
308
298
303
299
314
301
311
313
308
317
315
315
330
316
320
325
260
414
359
327
323
323
337
340
349
358
368
394
400
410
397
353
319
309
312
304
316
320
318
330
325
327
324
334
330
334
338
330
338
288
439
363
361
347
340
346
348
350
366
372
399
398
416
412
376
338
317
310
311
316
308
318
317
325
316
315
315
315
327
324
322
323
327
275
426
346
349
321
328
332
346
337
351
369
372
390
402
403
369
328
312
303
303
312
306
318
316
320
323
326
324
338
333
328
337
343
287
445
356
359
348
338
343
352
353
368
372
401
411
418
407
382
335
312
307
307
312
304
314
322
328
313
319
318
327
328
326
322
326
332
264
429
360
332
331
328
332
338
352
348
368
384
404
410
392
351
319
302
297
302
303
307
306
308
318
320
325
311
327
326
334
318
325
324
301
376
356
351
327
334
333
339
339
355
369
380
394
402
409
383
329
313
300
309
309
308
312
316
316
318
316
315
320
318
320
323
323
323
324
275
389
344
324
332
341
331
345
348
358
381
391
406
412
404
355
327
308
308
307
313
321
321
324
331
317
322
327
329
331
331
333
330
277
450
371
351
330
332
343
347
346
359
371
401
398
418
407
385
330
314
314
312
323
310
319
322
321
319
319
321
323
338
323
328
329
334
336
265
445
375
343
339
333
346
341
347
357
372
391
394
410
398
366
319
307
304
308
310
308
311
317
311
319
317
322
329
318
335
323
332
329
338
310
349
362
354
328
329
334
339
349
356
359
377
397
403
409
391
336
320
299
306
303
302
308
311
312
310
318
317
314
326
319
332
320
326
325
298
366
357
336
329
336
351
347
361
365
385
404
406
416
408
356
322
318
310
315
317
314
324
322
327
318
318
334
325
330
329
337
334
324
296
388
364
342
335
332
343
348
349
363
380
403
411
407
393
353
315
302
303
302
315
309
312
315
323
317
319
321
321
328
321
331
325
335
266
456
370
334
332
332
341
336
343
367
377
389
401
410
404
363
332
298
303
298
306
314
320
315
318
320
324
321
320
320
320
326
335
328
263
453
371
337
338
329
340
345
351
357
375
395
401
420
409
371
332
310
310
308
314
304
321
313
321
319
328
314
317
328
325
322
329
337
316
309
361
364
328
327
328
334
339
353
353
379
392
403
408
380
345
313
300
300
298
302
309
308
317
306
314
306
316
327
320
319
321
330
315
316
351
356
330
335
337
345
350
354
362
391
401
408
436
392
351
320
310
309
318
316
323
321
319
336
322
320
331
333
330
326
339
336
326
278
415
371
333
344
342
340
343
362
360
375
396
406
412
393
346
315
309
306
300
310
313
312
322
310
314
318
314
319
327
327
318
322
330
267
454
375
339
322
330
328
343
336
352
373
382
391
403
388
349
329
288
292
302
322
309
292
304
316
325
324
327
316
333
338
340
329
337
337
318
294
416
368
329
339
328
344
351
357
378
390
409
420
424
410
373
338
324
323
328
331
325
327
329
327
336
327
327
322
324
330
324
326
328
265
439
347
337
320
326
327
334
345
347
360
373
389
393
398
365
328
297
306
297
303
308
307
310
309
327
320
323
322
321
326
324
271
382
359
332
326
339
342
344
356
361
377
389
400
419
386
355
317
308
313
313
320
314
320
316
321
314
321
328
326
326
327
335
322
305
375
364
334
336
337
334
348
358
389
360
395
408
415
395
348
326
315
315
314
317
324
322
317
320
330
325
327
331
330
326
331
274
452
372
349
337
337
332
343
346
363
369
377
389
405
391
360
319
306
305
297
311
309
303
315
313
309
314
317
320
319
317
321
273
439
345
335
327
339
348
327
346
359
363
388
394
404
414
362
347
311
314
316
322
327
319
325
332
328
332
333
333
339
330
282
386
364
339
335
343
348
347
356
365
379
396
411
416
407
335
325
304
308
311
321
322
316
315
317
320
330
324
324
329
328
265
461
366
339
331
330
332
337
350
355
372
393
404
410
400
366
321
318
308
314
309
308
320
315
305
321
327
320
321
324
323
303
353
328
353
321
323
322
336
339
345
363
376
391
404
400
373
330
311
301
302
306
303
308
310
317
316
320
326
326
331
330
274
458
367
342
332
333
341
344
353
366
379
397
402
411
406
364
327
308
309
309
310
314
320
318
323
319
330
326
330
334
333
329
287
405
376
335
338
346
347
352
366
368
382
393
404
413
391
347
317
310
311
304
305
310
315
315
311
319
318
316
320
324
326
288
398
333
349
327
325
328
331
337
350
368
376
393
403
406
373
346
315
308
313
317
314
324
320
325
323
321
325
327
331
333
327
297
381
369
338
338
335
343
340
352
363
380
391
403
409
384
344
314
310
308
311
314
318
313
313
310
316
314
323
313
317
329
312
274
343
344
314
326
313
328
328
336
353
364
368
381
383
370
339
304
298
293
305
306
310
319
327
322
323
324
330
335
332
278
412
363
340
339
345
347
350
363
374
386
407
417
428
398
358
321
323
314
320
320
328
330
331
335
340
336
331
332
338
334
294
401
366
334
339
337
340
345
356
363
386
394
411
412
382
342
317
305
307
306
310
312
316
322
326
322
321
318
323
322
322
263
415
358
323
326
328
331
340
347
362
377
390
405
409
384
337
313
299
303
300
304
307
313
315
319
318
321
328
327
319
331
326
313
284
417
355
318
327
324
327
331
347
355
375
390
402
406
383
329
307
299
302
302
303
305
310
313
313
315
315
323
327
330
330
338
336
256
445
385
340
339
342
344
353
357
361
384
410
415
420
402
359
318
309
308
306
305
317
318
322
319
318
324
319
327
327
328
328
330
279
431
370
352
335
333
339
346
349
362
376
389
401
413
409
378
341
316
313
314
316
318
319
322
323
326
326
329
332
332
335
335
330
293
384
368
337
338
342
343
348
360
370
385
399
411
414
397
351
318
312
312
309
311
314
318
319
320
320
321
324
327
328
329
330
335
331
261
459
380
341
336
338
339
341
350
360
372
392
403
414
403
366
325
311
309
306
312
309
312
312
313
314
315
312
316
320
321
320
322
320
319
262
392
352
320
323
324
328
335
341
354
368
383
395
404
397
356
320
307
303
310
309
312
313
320
317
320
323
323
330
331
330
335
337
337
269
443
380
343
344
347
349
349
355
368
383
398
412
416
407
363
328
317
313
311
313
313
315
319
319
315
321
320
319
323
326
324
324
327
328
295
372
348
353
323
326
330
333
340
346
359
374
390
401
400
377
335
314
301
290
297
300
292
294
303
308
307
302
301
300
303
290
308
310
309
300
350
334
329
334
338
348
353
361
373
388
399
409
418
406
368
337
333
330
329
329
328
330
328
328
331
332
334
341
341
341
342
344
277
502
391
348
336
342
337
344
346
358
371
386
401
412
405
376
326
307
304
307
298
306
311
315
314
315
323
323
329
320
323
326
319
295
397
352
329
333
332
334
341
348
357
379
402
407
412
393
341
317
306
306
306
311
306
311
316
319
320
319
322
321
324
326
286
405
383
342
325
328
329
335
343
355
362
383
403
413
411
379
333
315
311
308
310
314
314
324
323
325
328
329
330
331
334
334
334
332
335
319
319
395
365
333
334
337
339
344
352
364
380
397
408
410
389
349
315
307
303
303
307
311
307
312
312
318
321
321
319
319
319
325
324
325
332
330
261
443
372
333
330
331
333
336
346
351
365
381
396
404
399
369
328
309
300
302
301
302
307
309
310
312
313
314
321
320
323
327
327
291
406
340
347
327
328
336
336
344
355
366
382
392
402
405
380
338
315
310
310
313
314
321
319
323
325
326
326
331
331
333
336
335
318
345
363
366
336
339
338
343
349
358
372
387
400
411
414
389
346
321
309
308
306
313
312
316
318
320
323
319
323
331
325
328
331
332
302
361
366
358
328
333
332
335
342
351
362
379
398
409
408
382
338
315
307
305
307
305
311
310
315
312
313
314
318
323
324
327
329
332
330
266
421
372
332
335
336
337
344
350
362
377
394
408
414
403
361
329
315
310
307
314
319
320
322
324
325
329
326
328
333
336
338
335
337
337
271
423
374
334
335
338
340
340
349
359
375
391
402
411
402
361
326
306
304
305
304
308
309
311
314
316
319
317
319
326
326
324
327
328
328
261
442
375
334
333
334
338
341
352
358
374
389
407
412
405
368
333
314
312
311
310
313
316
319
320
322
321
323
324
326
333
328
326
335
329
316
323
336
363
331
331
332
340
341
354
368
382
397
404
413
398
353
324
317
314
320
314
319
316
326
319
324
320
323
328
331
332
331
336
336
328
299
372
373
334
341
335
340
344
352
367
376
393
409
411
396
351
321
310
307
310
311
315
312
318
317
324
314
324
322
323
325
330
328
328
330
337
257
448
377
331
334
335
335
344
346
358
372
389
404
408
402
367
323
305
300
303
303
309
312
317
316
310
318
317
320
316
317
321
319
323
328
329
327
266
437
373
337
327
328
332
337
339
359
361
374
393
398
401
376
340
307
300
302
302
302
307
311
315
312
314
318
316
316
326
333
326
332
337
334
290
378
373
338
335
344
345
349
358
377
388
402
417
416
411
365
325
312
310
312
312
320
320
323
322
328
333
329
328
329
332
341
337
334
341
338
338
280
414
376
340
344
341
341
347
364
360
377
394
406
413
399
361
325
311
309
308
308
311
312
315
315
317
325
323
317
321
318
325
330
325
326
329
334
261
417
374
332
332
335
336
342
344
361
375
390
400
408
403
368
332
313
309
311
311
313
316
319
319
318
321
323
327
320
324
336
328
331
330
329
331
274
400
363
336
339
330
336
346
345
359
370
383
396
405
395
360
328
309
303
303
313
313
317
317
316
320
326
323
326
331
331
334
333
340
325
321
352
371
328
336
337
342
346
356
367
383
402
410
414
395
359
320
310
311
309
313
314
315
319
320
315
317
322
320
324
335
332
324
328
326
325
283
383
371
324
327
333
331
335
345
360
370
383
397
403
393
357
316
305
298
306
302
305
307
312
311
315
312
319
315
319
328
328
323
327
331
321
311
364
362
329
330
335
337
340
351
363
381
399
407
416
393
354
320
315
309
309
310
310
320
310
317
317
324
319
314
320
323
326
329
327
327
331
280
393
365
335
333
333
336
344
348
360
384
390
408
409
400
363
326
315
315
304
313
318
314
317
318
322
326
327
328
325
321
338
336
335
336
340
319
350
371
372
341
340
344
348
352
363
368
388
400
409
418
398
359
324
313
312
304
314
317
320
313
319
319
320
328
316
322
330
326
323
326
325
328
279
379
363
327
327
336
335
346
349
366
376
391
398
409
405
364
330
312
315
310
319
318
326
320
322
323
325
329
329
326
337
333
335
339
340
286
432
379
357
338
336
341
343
350
358
368
383
395
405
412
385
340
310
306
303
308
310
312
314
316
327
314
322
323
331
324
324
327
332
331
335
333
322
320
381
370
328
336
339
333
345
346
359
373
388
399
410
394
354
318
308
305
307
307
308
317
312
317
317
321
312
326
320
313
320
334
330
325
330
332
288
417
362
344
329
330
328
333
347
349
365
383
390
399
398
387
343
310
303
304
307
307
308
313
316
318
318
318
320
319
319
324
331
325
334
335
313
321
378
361
332
311
326
326
336
343
369
359
383
393
412
397
344
313
310
310
305
310
314
317
317
326
334
325
341
339
337
343
346
338
346
340
342
342
341
341
280
447
377
338
334
338
341
338
351
360
371
379
394
403
401
387
341
310
310
310
309
309
318
315
314
319
320
315
321
321
329
320
325
336
268
448
379
342
335
329
335
339
347
355
368
379
400
408
409
381
334
315
310
307
309
315
314
316
316
320
321
323
323
324
328
336
336
329
332
317
319
361
358
331
332
336
343
346
349
359
371
385
403
403
386
348
322
302
303
303
310
306
307
310
312
314
321
312
324
320
330
327
330
272
462
384
353
341
341
344
347
349
361
375
389
405
412
418
384
343
316
315
313
307
312
320
316
324
319
325
318
321
328
325
325
328
333
328
275
400
362
325
331
335
333
338
343
368
368
382
403
402
392
355
319
305
302
303
302
304
309
300
317
314
311
320
331
325
316
327
322
316
312
368
363
329
338
330
344
349
350
374
374
402
407
412
404
360
323
312
314
308
311
309
331
313
325
319
330
325
332
343
332
327
337
266
461
379
341
330
331
340
342
347
357
375
396
400
412
408
376
330
310
307
305
305
305
312
307
315
317
318
314
319
317
318
323
325
329
255
437
375
335
320
328
332
333
345
356
368
392
395
418
399
359
323
302
295
302
298
301
307
307
309
314
311
306
323
320
316
322
326
287
395
358
356
325
333
330
336
342
351
367
376
393
398
409
377
342
315
306
310
308
312
324
318
323
326
325
336
337
335
334
340
336
276
411
376
337
339
342
343
351
358
371
384
398
414
423
407
365
331
308
309
313
318
318
328
321
320
325
325
332
331
330
331
340
333
267
438
376
337
338
338
336
343
354
358
374
396
412
410
406
360
322
316
304
307
314
308
306
314
319
316
315
322
326
320
325
324
329
319
288
376
360
322
325
331
330
333
342
362
366
387
399
407
389
356
315
307
301
303
306
305
305
318
317
316
316
323
318
322
326
328
321
297
354
359
328
334
339
342
349
355
373
377
399
413
419
395
360
327
316
312
314
314
312
319
312
318
320
318
326
330
326
327
329
328
241
504
382
335
331
329
339
337
341
358
371
392
404
415
418
369
334
308
310
304
311
313
307
313
322
319
314
322
321
324
323
325
327
324
285
408
350
351
327
329
331
338
346
354
364
383
395
403
409
382
338
308
303
305
305
304
309
308
314
317
314
323
322
318
326
329
325
330
330
320
294
387
368
331
333
338
336
341
352
359
370
394
400
414
395
349
322
305
304
301
311
303
309
306
314
312
311
310
313
324
322
324
325
329
266
435
359
332
334
328
337
345
343
361
368
382
403
404
411
368
330
315
314
312
312
318
317
318
322
324
325
328
339
338
333
338
340
319
349
370
362
338
342
341
352
356
358
367
388
399
412
418
394
351
318
312
310
311
316
319
322
324
323
321
326
322
335
329
331
328
333
334
275
411
368
333
337
328
337
344
351
367
378
387
403
411
399
355
306
306
304
310
296
297
289
298
307
302
277
285
299
328
322
321
318
321
321
280
377
358
340
334
340
338
337
351
365
381
391
409
411
397
360
335
317
314
323
322
323
327
324
331
330
328
330
335
340
336
336
343
346
334
319
376
376
346
345
346
346
352
355
366
379
395
408
410
392
353
318
307
303
299
304
319
307
301
298
293
310
311
296
313
311
311
277
393
311
328
319
316
322
331
336
347
362
372
395
395
396
370
329
303
301
301
303
302
312
313
313
317
325
321
318
296
299
304
257
404
387
334
289
337
320
330
350
350
361
383
395
411
409
390
326
310
307
297
312
314
311
320
318
315
322
331
332
328
336
336
330
281
415
383
335
342
345
345
351
363
371
388
398
411
419
404
359
326
322
319
317
317
323
325
316
321
328
325
329
328
331
330
275
446
380
341
337
331
333
341
346
354
365
382
395
404
403
365
331
314
308
306
309
315
316
310
319
319
323
322
327
330
329
276
384
367
334
335
336
338
346
354
369
376
389
400
411
404
358
320
314
308
309
311
313
321
318
315
317
320
322
321
326
320
293
373
347
355
330
328
330
341
339
348
359
374
387
396
399
375
332
306
305
303
305
310
309
313
314
312
319
320
317
321
319
315
325
312
262
392
368
327
320
323
325
325
341
349
348
377
402
410
391
351
311
299
295
291
298
305
309
320
318
334
304
321
330
318
318
330
256
431
371
332
329
340
333
330
324
345
373
387
412
420
401
369
338
312
298
319
317
311
318
326
323
330
350
332
313
330
349
320
333
335
362
339
319
319
342
342
360
360
372
374
389
390
368
332
308
287
310
317
312
315
315
331
311
324
327
344
321
326
341
334
290
359
373
347
339
349
355
357
366
377
383
405
408
407
403
361
331
329
314
323
325
326
322
327
327
327
332
333
334
328
335
281
440
362
348
335
342
346
338
349
366
369
383
394
395
396
366
322
307
299
303
308
309
309
314
317
316
317
317
324
323
264
390
365
331
331
333
333
349
349
365
376
389
398
403
388
352
316
308
304
312
310
315
316
315
315
321
318
322
320
322
323
241
463
375
327
331
325
330
334
337
353
350
372
387
407
404
341
320
308
304
295
294
306
303
308
329
331
332
332
322
329
315
299
403
361
329
340
335
345
348
354
373
379
391
407
407
377
340
318
308
307
309
313
311
306
315
318
315
319
318
321
319
289
332
351
327
324
325
325
334
339
358
359
379
390
395
375
331
289
275
301
299
297
286
304
287
312
292
322
330
320
313
341
256
384
353
327
341
343
351
330
351
350
373
364
366
396
399
354
322
309
316
317
312
318
324
324
309
321
346
341
346
342
271
400
381
331
352
358
354
356
371
370
390
411
404
415
402
380
347
334
330
318
320
314
326
332
314
312
331
333
312
343
313
377
344
343
347
344
349
363
370
383
394
394
393
366
340
304
303
303
302
311
312
310
307
312
317
310
314
316
307
277
354
358
319
319
324
321
333
343
352
357
372
385
389
375
339
306
301
304
306
303
304
314
317
319
318
318
321
291
367
309
351
329
327
331
337
343
352
365
381
396
401
399
373
335
318
304
311
314
314
327
321
326
328
331
328
328
266
445
368
333
334
329
335
338
352
358
377
387
401
406
390
347
316
306
303
306
311
302
310
321
322
314
313
324
325
284
402
347
342
327
331
333
336
342
362
365
383
394
405
400
361
319
299
299
302
301
302
308
312
311
314
313
307
314
318
248
418
353
327
324
325
328
333
340
352
368
381
389
398
381
340
309
303
302
305
309
310
315
324
323
318
322
325
324
289
372
382
347
333
331
337
337
348
359
369
385
397
409
403
357
329
312
309
314
313
312
322
326
319
325
327
334
332
339
340
281
429
382
346
337
337
341
344
351
360
373
391
401
405
401
358
318
306
302
302
303
304
307
310
311
315
312
319
316
320
322
323
289
374
351
346
320
325
328
331
337
350
363
373
385
394
394
368
326
304
301
297
306
306
312
315
312
319
319
322
324
323
330
269
439
367
349
335
336
347
351
356
364
383
395
406
417
404
368
332
319
317
313
316
319
322
318
324
315
332
326
333
339
332
338
269
444
374
350
335
340
343
345
353
355
369
388
394
406
398
360
322
306
305
305
310
310
313
315
310
317
318
321
317
326
324
296
385
325
356
331
338
340
343
347
358
372
385
393
405
400
366
332
311
306
307
311
312
319
320
320
317
320
321
324
329
329
330
269
460
379
335
329
333
332
337
341
354
365
389
401
405
394
352
315
302
297
302
316
306
310
316
314
319
319
321
330
324
328
337
252
458
384
337
336
337
339
344
340
365
371
389
407
414
396
339
311
298
309
301
311
312
321
313
314
325
321
323
323
321
328
316
302
416
363
340
330
339
338
347
354
371
389
400
413
413
376
329
310
311
311
309
315
310
317
317
317
316
323
319
324
324
323
273
396
382
334
321
317
326
327
327
338
351
369
380
388
386
345
303
291
286
287
287
289
292
297
302
299
305
310
310
309
310
316
317
253
404
359
324
325
330
335
339
347
362
374
390
401
405
389
347
316
311
307
310
310
313
317
320
318
320
332
328
329
329
337
323
304
335
358
331
340
340
342
350
358
369
382
392
404
408
389
349
322
320
317
316
320
324
328
331
330
336
335
334
337
338
272
473
383
351
341
343
343
350
353
362
379
394
405
414
399
355
324
314
313
310
311
313
318
319
318
320
329
326
327
328
332
322
303
375
365
330
332
333
336
340
351
361
378
393
404
405
375
333
314
303
305
308
309
311
314
316
316
320
325
326
329
326
330
331
264
430
370
331
332
333
336
338
347
360
374
387
398
403
386
345
315
302
301
300
301
301
302
302
312
310
312
315
316
318
323
263
420
351
328
324
330
332
338
344
357
367
382
391
396
385
348
320
309
307
305
311
310
317
314
322
328
321
327
327
328
316
352
342
357
334
335
352
345
356
360
372
382
401
401
402
380
338
324
328
319
325
323
327
332
337
335
326
338
330
327
337
297
394
350
335
337
341
341
348
357
369
384
405
413
418
386
342
317
310
307
306
309
310
315
326
328
316
316
320
320
316
262
408
347
321
323
324
329
333
342
354
372
389
404
403
373
328
305
303
297
301
303
304
309
308
314
324
313
312
315
317
322
249
455
385
332
323
326
332
336
341
353
367
388
403
408
395
352
317
308
307
307
311
310
314
316
318
318
320
322
323
326
331
331
332
332
246
481
389
336
332
332
338
345
349
358
374
389
405
417
406
359
324
310
309
309
311
313
317
318
321
320
319
320
325
327
328
327
329
331
277
414
410
343
330
331
332
333
338
347
363
383
396
405
402
361
318
304
303
300
301
301
304
307
312
314
316
319
320
322
324
331
328
326
329
330
305
335
426
358
334
337
337
343
349
357
371
387
401
410
412
385
341
316
311
308
311
312
316
315
318
317
319
324
323
326
325
327
331
329
331
331
330
298
351
412
352
330
331
335
335
342
359
360
375
391
404
411
380
337
315
311
305
305
306
312
313
317
318
324
325
327
329
332
331
338
337
336
335
337
338
260
476
382
338
338
336
340
343
354
364
382
396
409
417
406
362
326
314
309
311
312
316
321
316
320
321
320
322
322
323
323
324
326
328
326
328
330
267
447
367
339
330
334
336
342
349
357
365
386
396
405
397
366
324
309
304
303
308
308
312
314
319
321
320
325
327
327
320
328
323
338
332
332
334
340
314
351
407
373
358
357
360
345
357
355
372
384
398
405
405
382
345
324
316
313
310
312
314
309
312
313
316
314
315
316
316
323
325
321
264
434
371
348
326
322
326
328
334
340
354
375
375
381
394
349
309
290
285
283
283
291
297
298
297
298
304
303
299
302
315
307
314
313
238
434
364
317
318
321
319
328
337
348
356
380
393
396
392
353
313
300
303
306
301
306
312
314
313
320
317
324
326
323
327
328
334
328
291
364
373
339
345
339
345
352
364
371
387
401
410
420
396
352
326
324
323
324
326
325
327
333
337
336
334
334
341
347
345
350
339
347
328
352
367
379
343
347
345
349
357
356
375
380
402
409
415
388
351
333
320
314
317
321
317
318
330
319
324
322
325
328
327
332
329
332
290
404
346
351
332
329
329
334
331
346
357
369
384
397
394
367
325
308
297
290
305
301
305
313
319
315
315
319
319
321
328
335
283
448
356
353
336
335
339
345
352
363
382
384
401
418
401
371
325
308
309
303
312
313
314
316
315
317
332
308
325
322
324
326
324
331
258
458
378
339
332
342
335
344
358
362
379
395
404
411
406
367
328
317
310
316
317
309
321
321
323
325
323
323
328
331
329
331
332
341
333
265
459
376
339
339
333
346
344
351
358
378
394
408
410
406
370
326
312
307
308
313
308
320
321
319
318
321
325
319
321
328
322
317
324
321
294
356
357
324
341
327
338
341
353
363
372
392
410
401
383
347
316
302
309
306
317
313
316
324
322
316
325
320
327
324
328
323
332
327
273
423
365
338
335
342
343
341
351
362
376
393
402
408
395
356
324
305
305
306
304
317
312
314
314
316
318
318
328
333
328
336
336
338
328
331
348
368
330
341
344
340
348
359
371
387
393
409
413
390
348
321
309
311
321
309
317
321
326
313
324
323
326
322
335
335
330
331
335
311
362
343
362
329
335
334
336
343
351
363
378
394
398
407
378
345
311
308
298
305
305
309
311
309
310
308
296
307
312
298
305
306
310
234
429
350
310
313
307
318
316
331
338
351
373
387
400
381
349
310
297
297
296
297
303
306
315
309
313
316
317
321
326
324
329
329
326
308
358
370
334
341
335
346
349
361
380
386
404
417
417
395
351
324
317
321
313
323
324
326
328
325
332
325
323
338
336
335
332
343
331
317
355
375
340
340
340
346
350
356
372
373
392
401
409
389
352
314
314
307
309
313
310
315
318
318
316
321
326
339
325
326
333
316
313
337
364
332
334
333
342
351
357
368
384
396
405
414
391
343
316
315
311
305
316
316
331
320
323
324
325
324
324
332
334
331
340
341
274
459
385
341
338
343
341
348
346
367
371
391
406
415
405
373
329
322
307
314
312
321
316
323
324
323
331
321
330
337
333
336
336
339
322
326
364
366
334
335
343
343
341
352
360
376
393
401
400
376
341
316
304
305
304
300
308
300
314
309
309
313
316
318
323
321
326
326
269
402
355
335
335
337
343
341
355
368
384
388
403
413
411
364
327
313
315
317
314
318
325
318
323
325
326
326
331
335
333
334
338
296
403
367
361
335
335
340
340
346
358
372
390
405
408
408
380
336
315
308
307
308
311
313
311
317
321
318
324
326
328
328
328
328
334
319
324
369
362
335
335
337
342
352
364
369
382
404
414
407
388
343
315
308
307
312
315
314
321
321
320
322
327
322
326
331
328
332
333
334
270
448
376
341
333
333
337
340
349
352
371
385
401
404
399
371
324
311
301
299
305
313
308
315
316
318
321
317
320
320
325
326
327
332
327
327
299
369
364
328
340
334
336
345
352
371
379
392
405
408
390
348
318
308
305
309
308
310
312
314
319
314
313
320
322
324
325
329
324
326
265
435
353
336
328
336
337
345
349
360
376
389
399
405
397
361
327
310
307
307
310
312
317
320
315
320
321
325
326
327
331
330
332
270
422
374
338
336
339
341
344
354
360
383
386
402
408
404
351
324
310
308
311
311
308
314
322
318
324
314
322
331
323
330
329
332
271
456
386
342
335
335
338
345
350
359
372
393
401
412
406
367
329
307
303
303
311
310
318
312
318
320
319
322
315
333
327
327
327
335
287
404
389
354
333
331
340
343
347
359
374
391
402
416
409
376
333
313
310
314
309
313
311
322
317
323
316
324
325
328
334
333
331
333
274
454
378
343
336
334
340
343
350
357
369
386
397
407
397
367
329
298
307
306
305
312
309
318
316
320
325
323
321
322
331
326
288
413
360
351
335
336
336
340
352
355
373
388
401
417
403
373
331
314
314
306
311
312
322
320
323
323
335
336
335
323
330
329
331
260
440
369
333
334
340
339
347
350
362
378
397
406
415
400
351
316
314
304
309
305
311
312
314
316
318
321
331
321
328
331
324
332
249
448
375
330
329
330
337
338
349
365
371
393
408
409
398
352
314
304
302
300
305
303
306
308
311
315
309
325
321
317
317
323
323
262
443
358
338
327
334
327
336
347
354
370
377
399
406
403
368
325
303
305
302
304
309
321
327
333
343
331
335
333
341
329
264
444
357
321
328
327
323
335
324
342
359
362
422
413
391
325
278
300
300
317
330
319
316
320
325
306
321
326
340
339
335
344
304
375
410
346
341
343
342
347
356
367
381
394
409
424
422
392
341
323
322
325
318
323
322
325
323
329
327
325
326
327
333
335
330
331
335
333
299
382
341
351
325
325
328
331
338
345
358
370
379
387
391
369
328
300
294
292
296
293
301
300
303
312
318
308
315
315
321
321
264
385
358
328
329
332
334
342
354
363
377
391
405
410
392
346
318
310
310
307
313
315
318
320
333
331
325
325
329
332
320
301
357
362
327
334
334
340
345
358
367
384
398
410
412
386
340
312
304
304
306
309
309
318
318
323
332
318
320
323
325
325
258
430
368
333
331
336
337
339
350
361
376
393
410
417
400
356
321
312
310
311
316
315
319
322
325
333
329
329
327
329
332
322
286
383
365
332
336
338
342
344
354
367
384
400
409
411
385
340
314
311
310
309
311
312
318
316
317
318
317
327
322
324
324
326
279
413
361
343
322
328
330
334
345
353
366
379
396
404
402
370
325
305
303
305
306
312
317
322
317
321
328
329
330
332
335
318
372
349
367
340
343
345
354
357
370
378
397
414
416
416
381
334
317
314
310
311
319
320
319
321
317
324
328
334
331
329
333
336
284
415
369
339
338
342
343
347
355
365
383
397
411
412
387
341
312
309
306
309
311
313
311
313
311
313
313
319
319
323
321
324
271
405
374
337
324
324
323
329
335
345
360
373
394
405
395
358
317
303
303
300
302
307
310
312
312
313
317
322
327
325
326
329
333
269
446
379
340
338
336
336
344
345
358
373
388
401
406
397
359
325
314
306
310
306
313
320
317
321
319
320
326
327
329
328
331
307
382
336
364
342
345
347
347
354
361
373
389
404
411
407
380
330
314
310
310
314
312
313
310
312
315
316
318
326
323
331
331
329
262
451
373
332
334
332
335
337
346
355
374
387
398
404
393
351
322
306
306
309
310
313
314
316
320
321
323
329
330
328
329
333
332
274
395
368
335
338
338
338
345
354
364
376
394
407
407
395
344
317
309
307
311
314
309
315
312
314
318
324
318
319
323
321
325
266
428
363
337
334
335
339
343
354
364
372
389
404
411
398
361
328
314
314
317
319
318
322
319
324
323
324
327
331
331
330
333
270
459
376
343
335
341
341
343
354
360
376
392
404
415
402
356
323
311
310
307
308
312
317
319
320
322
317
328
326
324
326
332
328
272
415
365
339
332
336
339
345
349
360
378
397
409
408
389
344
314
305
309
309
308
308
315
316
316
319
322
328
324
332
332
333
269
428
371
336
335
341
341
345
349
370
380
399
410
417
400
352
318
312
312
307
312
314
316
319
317
321
322
326
329
326
331
328
273
438
381
342
332
330
331
340
344
354
366
384
399
402
397
352
320
305
302
301
303
311
313
313
313
315
316
313
320
321
324
326
262
438
363
339
327
330
335
338
342
356
369
388
399
409
398
354
323
308
308
307
310
317
322
322
326
322
328
330
329
335
331
315
354
355
369
337
338
342
347
350
362
373
389
404
413
417
377
339
315
316
307
312
316
314
317
321
323
324
332
328
329
328
331
339
263
453
384
336
333
339
344
344
354
368
377
398
407
416
400
354
321
312
312
310
311
319
319
322
323
315
320
327
327
328
330
332
325
290
372
368
326
328
328
336
335
349
365
375
396
396
403
369
329
313
303
314
307
321
320
322
326
330
336
328
337
330
339
329
303
388
377
328
328
338
340
343
359
367
384
402
418
410
380
337
317
314
314
314
322
310
321
313
314
320
329
330
332
331
337
330
284
403
364
324
330
332
336
344
355
365
382
393
405
412
377
332
310
301
301
300
300
302
304
310
308
306
313
316
313
312
315
313
314
240
440
350
318
319
318
321
327
332
346
358
376
389
397
383
337
308
295
295
294
297
304
306
306
307
310
307
312
317
315
317
320
323
324
267
389
355
329
328
326
341
340
349
359
376
391
403
408
392
350
320
309
309
309
316
314
319
320
322
321
322
329
332
329
331
332
335
292
410
348
354
331
329
335
342
346
355
366
377
391
400
402
370
328
308
297
302
304
308
309
312
315
320
321
322
324
326
332
312
390
339
369
341
346
347
351
357
368
381
396
413
418
419
385
338
317
310
311
313
313
319
319
323
319
324
324
329
326
327
329
331
267
454
379
344
331
332
335
337
346
356
370
390
402
411
406
362
323
310
306
307
311
311
316
318
318
321
323
329
333
332
335
336
344
310
375
403
365
344
340
340
346
353
359
378
391
406
415
418
380
335
315
309
305
304
309
314
318
318
320
321
326
327
328
328
330
331
332
260
449
370
333
333
335
338
343
351
365
378
394
404
408
400
351
315
309
306
305
311
310
314
317
319
318
317
320
328
325
326
329
329
288
413
334
352
329
334
333
336
348
355
367
381
389
402
397
368
330
305
304
302
302
306
302
310
310
313
320
319
317
320
326
331
301
342
369
353
332
328
330
340
344
354
369
381
399
404
412
381
336
314
314
311
316
316
320
323
327
328
328
331
338
339
339
343
339
336
305
381
373
339
339
345
352
355
365
378
388
401
413
420
397
355
328
318
317
319
318
317
323
321
320
320
326
327
327
324
324
328
327
274
399
355
329
331
333
338
340
345
364
372
381
396
402
390
349
317
310
304
310
312
315
318
317
320
323
320
323
324
327
327
332
266
460
370
337
336
334
336
339
349
360
376
393
406
410
395
352
318
311
306
311
314
309
313
317
317
321
317
325
330
332
331
331
336
291
402
390
353
334
336
336
342
347
359
372
390
406
415
415
377
331
312
311
312
311
315
311
316
319
326
326
328
334
333
331
336
339
306
375
365
371
337
342
344
345
354
361
370
388
408
411
414
383
336
317
310
310
303
311
310
309
311
308
312
318
316
310
316
316
322
256
412
352
325
320
326
332
336
340
359
372
390
395
404
395
355
323
308
311
306
315
315
318
323
317
322
327
327
330
330
332
336
268
439
374
342
335
341
340
347
353
366
381
394
407
412
398
358
318
314
311
308
313
316
318
319
320
314
323
323
325
324
328
332
326
261
438
367
327
331
333
342
342
352
359
377
391
404
407
394
349
318
304
303
304
307
308
316
311
316
314
316
323
324
321
325
324
328
270
401
360
331
335
331
332
344
352
360
372
387
401
405
390
350
317
310
300
305
305
309
306
309
313
316
316
321
324
331
333
338
288
432
352
357
335
340
346
344
353
368
377
393
414
418
412
375
333
315
310
312
312
313
317
319
318
316
317
322
329
326
328
332
330
306
373
367
359
336
333
334
339
350
353
375
383
400
412
409
375
335
318
307
307
306
309
309
316
316
314
317
320
323
320
327
333
326
271
444
358
337
325
328
326
332
344
352
363
384
391
404
397
359
322
307
306
311
314
319
321
323
321
323
329
326
327
329
333
327
292
381
364
334
335
341
345
349
359
366
388
399
410
415
391
344
316
309
309
310
309
312
317
319
320
324
322
323
321
323
323
328
267
425
358
327
324
326
330
340
345
355
372
389
398
407
386
340
309
302
297
294
296
301
300
311
310
313
311
313
322
317
319
325
325
271
429
370
343
328
329
334
337
347
359
367
389
400
415
405
373
328
317
311
310
309
304
310
316
317
318
318
320
320
327
329
330
329
329
270
464
377
348
332
335
339
340
348
356
373
389
403
411
399
371
321
307
301
303
305
309
308
311
313
322
325
327
329
327
331
335
270
449
365
341
336
340
346
349
359
371
384
403
416
423
404
357
324
308
311
309
312
315
319
320
319
322
327
338
332
332
327
336
319
342
372
358
329
334
341
338
344
356
372
386
407
420
412
384
332
314
306
306
305
310
307
313
309
310
310
314
326
317
319
317
321
319
260
423
350
324
323
327
329
334
341
353
372
381
394
401
390
345
313
301
299
300
311
306
311
315
316
332
322
327
327
330
334
272
468
365
343
340
339
343
349
356
369
380
397
409
423
407
361
328
315
314
314
314
317
321
323
326
327
334
328
328
332
330
333
273
465
365
341
335
334
339
342
346
365
378
396
