307
306
313
312
315
320
324
323
323
324
283
371
383
352
322
325
330
330
336
343
357
376
393
400
378
322
300
297
298
298
303
306
306
314
319
320
320
322
327
241
438
405
330
327
327
333
337
344
355
370
387
400
401
361
315
301
301
304
306
311
313
315
317
324
324
325
328
328
237
438
415
328
326
328
330
332
338
347
362
380
393
392
353
306
293
291
292
292
295
295
299
301
305
310
311
313
316
304
274
365
365
316
319
320
327
332
341
352
369
387
397
381
332
303
297
296
298
302
304
307
315
316
321
323
326
328
303
345
368
370
333
336
341
345
350
360
373
392
408
417
395
343
317
314
314
316
319
326
326
328
335
333
336
338
341
239
451
424
335
338
338
341
344
349
361
374
391
405
403
360
317
308
305
305
307
307
312
313
319
318
320
321
323
232
417
404
326
324
326
330
337
345
354
374
389
401
402
359
318
303
304
303
307
308
320
318
326
324
324
326
323
250
388
393
330
334
337
340
347
355
367
385
403
415
406
348
311
304
303
305
305
309
315
318
319
323
323
325
232
440
431
329
321
324
329
335
340
352
371
390
404
408
363
316
303
301
295
303
305
304
311
314
320
324
324
327
290
340
426
358
324
331
334
336
344
349
364
381
400
406
382
329
307
305
304
305
310
310
312
315
323
324
326
331
334
225
449
437
332
332
335
337
341
347
356
371
388
400
398
356
312
304
302
301
304
305
304
306
310
316
316
318
322
318
253
378
378
319
321
327
331
337
345
355
373
387
399
384
337
305
297
298
299
300
303
309
311
310
313
315
320
264
416
389
346
325
330
330
338
343
356
372
391
405
410
375
325
310
307
310
312
316
319
323
327
326
327
327
331
228
447
413
331
333
336
339
343
352
361
379
395
406
403
355
317
311
309
309
311
313
314
318
323
327
328
331
334
268
414
432
347
333
338
339
345
350
359
374
391
405
409
374
326
310
309
309
309
309
310
311
315
321
323
327
329
332
245
395
396
328
330
332
337
340
350
360
374
391
401
394
345
313
304
304
304
306
309
312
313
316
325
327
327
331
329
247
399
395
328
332
336
339
345
351
359
375
390
402
396
348
314
309
306
308
310
311
314
314
316
320
325
327
331
335
236
446
421
332
332
333
335
339
346
355
371
388
400
400
355
312
304
306
305
305
308
307
312
316
315
317
322
322
228
410
396
326
328
330
334
339
347
358
375
391
403
391
339
306
302
301
303
305
304
308
314
317
316
320
324
302
326
382
363
327
331
334
339
343
353
368
383
395
404
378
327
306
299
305
303
303
304
308
316
314
318
323
321
250
362
381
320
324
323
331
337
343
356
372
384
390
378
331
300
296
295
297
301
303
311
315
316
316
319
321
262
426
393
346
328
333
335
342
350
359
373
388
400
403
368
323
310
309
312
314
315
320
325
325
327
326
330
291
369
416
359
332
333
336
340
347
357
372
389
401
407
372
322
307
307
307
308
311
312
318
321
324
326
328
332
238
440
418
331
333
334
339
344
349
361
377
395
405
403
353
314
308
307
308
311
313
314
316
318
325
330
330
335
336
255
439
433
342
336
337
338
343
348
359
374
388
401
404
367
320
307
305
306
309
312
316
316
317
317
327
327
328
332
327
267
383
386
328
332
334
336
343
353
364
379
392
402
386
340
309
301
302
304
307
306
313
315
322
322
324
328
291
379
373
364
332
336
339
345
352
362
378
393
408
412
380
327
310
306
308
310
314
317
320
324
324
326
328
330
234
414
399
326
328
331
333
341
345
357
373
388
398
384
334
301
294
294
297
300
303
305
304
306
314
316
319
320
323
224
416
399
320
322
323
327
333
339
349
367
384
394
385
338
302
296
297
297
300
302
303
307
314
316
319
323
324
233
397
395
323
326
330
333
338
348
359
377
391
403
388
337
304
299
300
304
307
308
313
317
318
321
324
329
297
366
363
363
330
335
337
343
349
358
372
389
403
408
380
330
309
307
307
310
315
316
321
324
325
326
331
333
244
415
405
333
334
335
337
343
351
363
380
395
409
397
350
313
305
304
308
311
311
314
317
324
323
326
331
330
239
408
394
326
330
332
335
340
348
361
378
391
404
388
335
305
302
301
301
304
306
307
311
317
319
322
325
329
238
428
420
328
332
333
336
339
348
360
375
391
404
399
355
314
303
305
307
309
312
313
317
321
325
325
327
330
308
331
366
372
329
336
337
341
346
356
371
387
402
410
386
335
313
309
310
314
317
319
319
324
330
329
330
334
335
248
415
405
333
335
338
341
345
352
365
382
396
405
395
346
309
304
304
305
309
312
314
317
321
325
324
326
331
286
361
416
351
328
331
333
337
344
353
365
383
398
403
372
322
302
304
303
303
306
307
310
314
317
318
321
322
323
238
390
392
322
324
328
332
336
346
360
374
390
399
389
345
308
298
300
299
303
308
310
317
317
318
322
324
326
266
424
392
350
331
332
338
343
352
363
378
394
407
411
380
331
315
314
314
318
322
325
331
332
332
332
334
338
240
443
411
337
333
336
339
343
350
362
378
395
408
398
347
311
304
302
305
305
309
310
314
318
319
319
321
325
224
438
413
323
323
324
326
330
338
349
366
385
397
390
340
302
296
297
296
299
302
304
307
311
318
317
319
324
301
298
399
360
325
327
329
334
340
349
360
381
396
403
376
325
304
302
302
301
306
308
312
317
323
324
325
329
323
267
362
382
328
328
332
337
342
350
363
383
395
404
384
338
307
303
303
304
310
312
316
322
323
325
327
331
286
399
393
362
335
336
339
343
352
363
378
394
407
411
374
326
311
308
308
310
313
314
318
322
321
324
326
329
232
424
409
328
328
332
335
338
347
358
374
393
402
394
341
307
299
299
301
305
305
311
316
321
321
324
328
316
285
377
370
327
329
331
333
338
350
362
381
395
404
378
327
306
302
303
303
306
310
315
320
323
325
328
330
244
398
400
331
333
337
340
348
355
367
382
399
407
393
341
313
305
305
307
308
314
320
323
323
328
329
322
287
350
380
328
333
337
338
347
355
369
384
396
407
381
335
310
306
306
307
311
320
325
322
323
327
331
299
371
378
363
332
334
338
342
349
357
370
387
400
406
371
322
307
304
304
305
307
314
318
315
315
318
321
260
400
414
340
322
325
326
330
335
344
360
375
390
391
348
304
296
295
296
296
297
302
307
311
313
316
320
269
367
405
339
321
323
326
332
339
348
363
380
394
397
359
316
305
304
304
307
308
310
315
319
322
325
327
330
248
430
421
333
331
335
340
344
349
361
375
391
404
399
356
318
311
309
309
310
313
315
318
321
328
328
330
333
319
305
365
378
333
336
338
341
347
356
369
386
400
410
388
339
316
311
310
311
313
314
318
323
328
327
330
335
319
301
390
374
331
334
337
341
346
354
368
385
399
406
378
328
309
308
307
307
309
311
313
318
322
324
327
331
333
241
436
418
332
331
335
336
343
348
360
374
390
402
397
349
315
308
307
307
309
312
313
317
317
318
322
330
331
329
333
318
297
391
376
331
335
335
339
343
354
364
379
394
405
384
339
311
307
310
309
313
316
318
325
327
332
330
335
337
289
396
398
360
333
334
337
341
347
358
370
387
399
404
368
320
304
304
304
306
307
309
311
315
320
323
325
328
324
262
394
385
327
331
336
336
344
352
364
381
397
406
383
332
310
308
307
308
309
310
312
309
312
319
322
324
326
325
237
406
397
325
326
329
333
337
343
356
371
387
398
385
339
312
302
303
302
304
304
307
311
315
316
318
321
324
273
409
402
348
328
328
327
334
341
355
366
385
400
404
370
324
308
307
304
308
312
320
322
325
324
327
330
317
311
390
365
330
334
335
341
372
345
351
379
411
438
368
330
316
303
326
316
308
351
327
332
325
331
337
274
366
441
353
321
335
338
335
344
359
375
388
405
405
353
304
294
291
291
295
290
298
303
329
319
327
332
335
224
421
416
324
328
324
327
336
349
363
378
400
405
391
338
308
308
301
311
310
312
310
309
314
317
317
325
325
330
255
416
456
350
333
336
340
341
348
359
372
379
396
401
368
321
314
313
308
317
331
312
317
317
318
325
325
325
329
325
258
393
386
334
336
338
340
348
356
369
386
398
405
387
336
309
308
307
307
312
315
315
320
319
324
325
327
329
323
283
379
382
334
336
339
343
349
359
374
393
409
418
397
337
317
312
312
314
318
322
321
325
325
323
323
326
328
240
453
426
339
336
339
339
342
349
359
377
395
405
401
353
314
306
305
306
311
314
313
313
318
323
326
327
328
330
281
378
421
352
326
330
334
336
344
354
368
389
401
407
371
319
299
298
298
304
303
309
309
309
313
320
319
318
320
319
256
370
374
322
324
328
332
337
345
355
373
387
395
381
333
306
300
300
300
306
311
313
323
320
319
321
324
326
249
454
406
340
335
336
340
345
350
364
378
396
412
407
361
318
308
307
308
310
312
321
321
327
325
326
327
325
261
392
374
325
328
329
332
337
347
359
379
396
403
380
325
302
298
300
301
305
309
311
310
317
321
322
324
325
329
243
439
416
329
325
327
329
333
340
351
367
386
399
400
355
313
304
303
305
309
309
315
317
318
320
323
327
325
327
333
268
404
414
347
329
332
333
339
344
355
369
387
401
404
370
324
306
309
309
312
314
322
325
331
331
337
338
342
341
319
315
416
375
339
334
340
347
352
362
380
397
411
419
391
337
317
314
316
316
320
324
322
328
329
334
334
337
337
263
433
420
348
333
335
339
340
346
356
373
389
400
403
363
316
303
301
304
309
313
318
317
321
318
320
323
329
330
329
332
313
297
391
367
322
326
327
329
337
345
355
373
391
397
380
333
303
297
299
301
305
311
316
316
318
321
326
330
331
333
337
251
454
421
342
331
333
335
339
345
355
369
388
400
400
361
314
300
297
299
302
307
311
313
317
321
321
324
327
331
255
427
427
341
330
332
334
338
344
352
368
385
399
401
358
316
304
302
302
307
310
314
315
316
319
321
325
327
329
330
256
432
418
337
327
329
333
335
341
351
364
381
394
397
360
316
298
297
293
297
300
304
304
310
313
316
316
319
323
239
427
403
326
322
324
329
330
340
348
365
384
394
393
350
309
294
296
297
304
307
310
317
319
322
323
328
330
235
435
402
335
334
337
339
345
353
366
384
401
412
399
346
314
310
309
309
312
313
319
323
325
325
328
332
293
344
427
355
330
333
333
336
343
353
370
389
402
408
370
319
305
304
303
304
306
307
311
314
319
320
321
323
317
264
382
374
326
325
330
334
337
348
361
377
391
400
380
328
303
298
297
299
301
301
310
311
316
318
320
324
318
276
349
376
327
332
334
340
344
353
368
384
399
409
393
345
315
311
310
311
314
318
326
326
326
327
329
333
249
448
422
342
334
337
339
344
351
362
379
395
405
405
360
318
310
310
311
312
313
320
325
326
325
328
331
280
386
419
351
330
332
333
336
342
352
369
388
401
403
362
315
300
300
299
302
305
306
311
315
318
320
324
326
294
342
408
354
328
327
330
333
339
347
363
383
398
402
370
320
303
300
300
302
303
307
306
312
317
322
324
326
329
262
408
427
340
328
330
333
339
345
355
369
387
401
402
365
318
305
302
304
306
308
308
309
314
322
323
326
328
330
241
425
410
329
328
330
333
338
344
357
372
389
397
394
351
313
302
301
301
303
307
309
316
323
322
326
329
333
247
411
404
336
336
337
341
348
356
367
384
398
408
397
350
315
309
307
308
310
315
317
317
324
325
327
328
332
235
426
408
331
332
332
335
338
345
357
376
393
404
395
343
312
306
306
303
308
311
315
314
317
321
323
329
330
335
263
425
425
344
333
335
337
342
348
361
374
391
404
408
368
325
312
307
311
312
314
318
319
320
324
329
332
332
336
317
309
392
376
331
334
337
339
344
352
367
385
399
406
382
331
310
304
304
305
305
308
309
313
317
319
321
322
327
241
393
391
327
325
329
333
336
346
358
376
392
403
393
344
309
303
301
304
304
308
309
315
316
318
319
324
329
235
428
405
329
330
330
334
338
346
358
376
394
406
397
347
312
305
302
304
307
309
311
313
313
316
326
326
328
330
331
232
431
407
327
330
331
334
340
345
358
378
394
405
396
348
313
307
307
308
309
311
314
316
313
318
329
331
330
336
338
241
426
413
330
331
332
334
338
345
358
378
392
404
395
347
311
299
300
302
304
307
308
309
309
312
318
322
322
325
329
238
439
413
329
327
329
329
336
341
354
370
388
397
394
348
307
299
297
298
299
303
308
311
311
313
313
321
321
323
328
322
260
396
381
327
333
330
333
339
345
359
379
394
403
384
333
306
299
299
300
306
308
311
312
316
313
317
324
325
325
329
333
249
449
426
342
331
335
340
343
353
362
379
396
410
412
370
326
313
311
310
312
313
315
318
321
322
322
323
331
330
331
334
331
253
418
389
329
323
331
339
342
349
364
377
390
402
391
342
305
304
302
300
305
307
308
314
313
319
323
324
326
324
334
242
452
432
341
338
340
341
347
354
367
385
404
420
415
369
328
317
315
315
320
321
328
325
331
333
334
335
338
341
248
461
444
343
338
338
341
345
350
358
378
394
408
406
362
318
307
306
307
304
308
311
315
317
315
317
325
324
326
327
330
233
454
422
331
330
332
333
338
345
356
375
393
407
403
359
315
306
303
305
308
312
313
316
319
320
320
317
318
327
328
326
329
331
230
448
415
323
322
325
326
331
337
348
362
378
394
395
355
311
297
297
294
299
300
302
306
307
307
309
318
318
320
322
326
233
439
411
328
325
327
332
337
346
357
375
395
407
406
364
318
307
305
306
311
312
315
317
320
322
326
325
329
330
332
235
446
408
328
330
332
335
338
344
359
376
396
408
400
353
315
307
305
303
304
310
313
317
316
316
317
320
328
331
326
331
328
253
401
386
326
327
331
332
337
345
355
374
393
405
396
347
313
304
301
305
307
311
316
317
322
325
327
333
333
336
338
303
354
428
370
337
338
341
344
351
357
373
394
411
419
391
337
313
308
307
311
312
315
318
321
325
328
325
326
336
336
335
338
336
238
432
406
332
332
335
338
340
347
358
376
394
405
399
355
314
305
306
306
306
311
313
318
320
323
323
321
323
326
330
332
333
337
266
416
447
346
330
328
330
334
338
348
366
383
398
409
383
331
306
301
302
303
309
307
311
311
314
315
319
323
327
330
278
405
423
360
334
337
337
342
348
356
372
393
408
417
385
330
308
306
304
307
313
318
321
321
325
327
329
332
333
337
247
462
447
343
335
332
334
339
344
354
373
392
406
410
370
320
304
303
302
304
304
307
310
314
313
324
321
325
326
325
242
418
383
323
324
326
329
333
339
355
375
389
402
387
335
302
298
295
297
299
302
305
306
307
310
321
320
323
326
328
233
445
422
329
328
331
331
336
343
354
371
392
402
408
364
315
305
304
302
304
309
311
312
316
318
323
324
325
326
308
319
374
370
326
331
331
336
340
352
364
382
397
406
387
336
307
302
305
306
311
311
314
320
322
325
324
328
331
260
437
421
345
332
333
336
341
345
358
372
392
407
410
371
322
308
307
304
306
307
312
313
317
319
326
326
328
331
327
258
402
385
327
331
331
334
341
348
360
376
394
403
390
338
306
300
298
300
303
305
307
309
311
317
318
321
322
325
247
430
422
331
328
327
330
334
339
350
366
385
397
400
365
318
302
300
298
301
306
307
312
310
315
324
322
324
327
330
242
438
415
334
329
331
335
337
344
355
371
388
401
404
368
321
304
304
305
305
313
319
318
322
323
328
331
329
331
331
256
401
394
333
337
336
341
347
356
368
383
402
411
401
355
320
312
309
312
313
317
319
321
320
323
330
331
333
336
335
250
413
400
332
337
340
339
343
351
362
380
396
406
399
350
313
304
304
305
308
310
311
312
317
319
329
325
328
331
324
262
400
385
327
334
331
336
340
347
360
377
394
403
390
340
306
300
298
299
300
301
304
304
307
319
317
319
318
320
236
400
390
320
322
323
327
336
345
354
372
388
401
393
348
310
301
300
301
307
312
317
323
325
322
327
331
333
238
454
412
335
334
335
333
338
345
360
375
393
405
402
353
312
304
300
302
306
308
309
312
321
322
323
322
326
323
248
407
382
324
329
328
331
338
345
357
375
389
402
387
335
303
298
297
297
301
305
305
308
315
323
324
326
328
330
241
452
424
334
331
335
339
345
350
360
375
393
404
408
374
326
314
314
313
311
315
318
321
323
321
323
325
331
333
333
334
332
223
465
390
331
333
331
334
341
349
362
375
391
402
398
355
317
311
309
307
308
312
316
316
320
323
323
324
331
331
334
331
334
244
408
403
332
334
335
339
344
351
362
379
393
404
404
361
319
305
304
305
306
308
309
311
312
313
313
323
323
324
326
322
261
369
383
326
325
331
332
338
343
355
369
384
396
390
344
308
301
300
300
301
306
309
310
310
316
320
321
322
326
328
240
438
411
336
330
332
339
343
350
361
375
392
405
406
370
323
312
307
309
311
314
323
321
321
323
328
329
331
334
335
278
403
419
356
333
336
338
341
348
353
366
383
400
405
382
331
306
304
303
303
305
307
311
311
312
314
320
323
324
326
329
294
354
403
362
330
333
336
338
341
352
366
381
393
402
384
337
308
303
304
305
306
309
309
314
310
316
321
320
325
330
332
239
433
411
334
334
339
341
345
352
362
377
395
407
408
368
324
312
311
311
314
316
320
322
322
324
326
333
333
333
336
334
247
424
401
332
335
337
340
344
350
362
378
393
404
400
354
313
306
306
307
309
313
313
316
318
321
322
322
328
334
331
334
335
320
296
405
375
334
336
338
342
348
351
367
382
399
408
399
353
316
307
309
310
309
314
317
319
318
315
317
326
323
327
329
328
237
413
398
326
327
329
332
336
342
355
367
385
397
397
355
310
297
295
297
299
302
307
310
312
313
310
313
320
321
323
328
325
241
404
390
324
327
328
333
336
343
353
369
387
400
397
355
315
303
302
304
307
311
313
315
319
319
320
319
324
327
333
333
336
337
265
434
435
348
334
337
339
344
348
356
368
386
402
410
388
341
315
308
308
311
316
317
321
322
323
325
322
326
331
336
333
335
339
257
451
442
341
339
342
344
346
348
357
367
385
400
413
384
336
320
307
313
312
317
320
322
325
327
319
323
325
316
323
331
332
261
431
430
349
342
341
342
347
354
355
369
384
392
397
377
334
293
297
301
303
307
312
314
319
317
314
322
321
318
323
317
235
406
402
324
324
327
331
332
337
349
357
371
389
391
355
309
295
292
304
286
297
303
316
307
312
309
316
311
310
316
317
273
395
384
338
317
318
327
326
332
343
352
377
388
400
380
335
307
304
299
301
305
308
310
314
316
317
327
326
328
331
326
283
372
387
334
337
340
344
348
353
366
384
401
412
405
358
322
312
311
313
317
320
326
330
327
324
327
327
325
329
330
303
334
388
362
325
328
329
331
334
340
352
368
384
395
384
337
302
297
299
298
301
308
311
311
310
312
315
317
315
321
324
239
402
395
328
331
336
337
339
349
360
375
393
402
402
364
319
305
305
305
306
311
317
315
321
323
323
321
326
330
264
422
410
346
326
329
333
335
342
351
363
383
391
404
375
324
305
302
301
303
306
311
315
318
321
322
321
322
324
331
258
439
419
346
330
331
330
335
337
346
357
373
388
402
375
328
309
307
307
309
311
316
317
320
322
325
325
328
328
320
244
465
365
323
323
324
329
333
342
355
372
390
403
391
340
309
307
305
305
308
311
315
320
322
325
323
324
326
307
270
454
353
327
328
330
334
339
348
360
374
392
404
387
335
311
307
306
306
307
309
309
314
318
320
317
325
321
217
448
403
315
311
315
320
328
330
342
359
374
386
397
357
314
302
302
305
305
310
309
315
314
315
315
313
315
252
408
383
333
320
322
325
329
337
345
358
372
387
394
370
322
300
302
301
306
306
312
318
319
319
323
326
287
385
378
363
334
339
340
345
350
359
372
384
397
405
382
331
311
310
313
314
314
319
324
327
326
329
332
310
320
395
372
332
334
341
341
344
353
365
378
393
396
378
329
307
303
300
305
305
309
314
317
320
320
324
317
281
342
375
324
326
328
333
341
348
360
376
392
403
389
342
313
306
309
310
312
316
320
323
325
325
328
330
239
420
400
331
334
336
338
343
351
363
377
392
403
396
349
312
306
306
308
312
314
320
324
327
327
328
333
330
256
385
385
327
328
333
335
342
351
363
377
395
405
395
348
313
305
304
304
303
304
313
318
319
321
325
327
243
425
403
334
333
334
338
342
349
359
371
392
403
399
357
316
305
303
303
306
308
309
313
319
320
320
323
324
237
433
404
330
323
327
332
338
345
354
368
385
396
400
362
320
310
309
309
310
311
311
319
323
324
327
331
331
246
430
431
335
327
333
334
340
341
350
365
380
395
398
363
318
308
310
305
304
305
308
311
317
323
322
324
328
325
268
362
384
327
331
334
337
345
351
359
378
390
401
387
340
308
302
299
299
300
303
303
308
312
310
316
317
319
231
411
395
322
322
325
329
335
340
354
369
383
395
394
350
311
301
301
302
303
305
307
313
314
316
317
319
322
234
436
416
328
324
327
331
336
343
352
365
381
393
393
353
312
303
302
303
304
307
308
309
313
313
317
320
324
325
250
402
416
329
318
321
324
331
336
344
357
374
387
393
361
315
302
298
298
298
302
303
307
315
321
321
322
326
264
406
404
340
327
330
334
342
348
357
370
387
399
403
371
324
313
310
308
309
312
319
324
325
325
328
329
306
339
353
367
329
332
338
343
349
358
372
390
402
411
383
333
310
304
306
307
310
311
318
320
320
320
323
323
268
389
404
343
323
325
328
331
338
348
361
376
388
393
358
311
298
299
300
301
304
307
307
311
318
319
322
325
330
235
426
410
327
329
334
339
343
349
358
374
389
402
400
355
318
309
310
309
313
315
315
317
325
326
328
330
332
257
429
413
339
336
340
343
347
356
365
378
396
409
407
370
325
314
312
311
314
315
318
326
329
333
332
335
339
289
409
393
363
341
341
346
349
356
363
376
392
403
409
377
327
306
305
303
304
305
305
311
313
314
314
314
314
256
373
397
331
313
315
319
322
326
335
347
366
377
381
346
301
285
285
287
288
291
295
297
297
300
309
310
312
315
317
222
414
398
319
323
326
330
335
341
351
364
379
392
391
346
307
300
298
299
302
304
311
315
314
318
322
325
325
328
332
258
419
426
343
335
339
342
345
348
357
369
386
397
403
369
323
309
308
308
310
314
318
318
322
323
331
330
331
333
309
327
377
368
336
337
339
343
347
355
369
382
394
402
379
331
309
300
300
303
305
308
309
316
316
317
320
317
321
253
424
394
337
323
324
326
331
334
347
355
376
382
381
346
309
298
290
294
297
299
313
314
325
315
323
329
329
275
384
383
335
337
342
345
354
360
371
385
396
406
387
336
315
314
317
322
323
326
328
329
329
326
324
323
318
239
450
368
316
320
322
326
331
336
349
366
385
399
382
331
306
304
304
305
306
306
311
315
320
319
320
324
278
344
456
349
326
328
331
335
340
349
362
382
398
404
368
316
300
299
300
301
304
308
310
310
312
318
318
319
322
320
209
435
398
318
318
320
325
328
334
345
362
376
387
384
336
299
293
290
291
294
295
299
304
306
304
308
315
319
322
323
327
244
430
431
335
330
330
336
337
343
351
368
385
397
403
370
324
306
307
306
308
310
313
317
319
324
323
327
328
332
336
338
341
284
431
424
364
345
347
349
354
355
367
380
395
408
418
391
339
317
314
314
316
318
321
324
325
326
331
331
332
333
329
248
448
384
336
334
338
338
342
348
361
378
393
405
389
336
306
304
304
303
305
308
311
314
318
315
317
325
321
323
324
329
212
481
407
333
330
334
335
337
342
352
366
384
398
400
358
313
306
303
302
303
304
308
311
315
317
320
323
323
328
332
333
336
334
297
315
433
362
330
336
343
346
350
357
363
377
385
401
393
343
315
305
305
305
307
305
311
309
313
316
316
317
323
322
321
322
325
234
413
401
325
327
325
329
333
340
350
362
376
387
387
353
302
288
284
283
284
287
292
292
295
295
297
296
305
301
304
303
300
250
339
361
306
313
316
315
319
328
342
358
375
388
383
338
302
295
296
298
303
311
316
323
325
327
325
329
331
332
335
336
334
234
482
402
341
341
348
349
351
356
365
384
400
415
415
367
329
320
319
318
318
321
325
331
333
333
336
334
331
331
336
336
337
338
328
286
400
383
335
333
334
338
342
347
358
374
393
403
398
351
315
305
302
300
301
305
308
311
315
317
320
317
319
327
326
327
331
323
266
400
382
329
333
334
336
340
347
360
374
392
405
397
355
313
304
303
301
304
304
307
312
313
315
314
311
312
314
315
316
317
320
259
406
392
331
311
315
316
317
327
334
344
364
379
389
370
324
295
290
292
294
297
303
309
311
314
313
322
324
324
327
327
240
406
391
326
330
329
333
338
344
356
373
390
404
399
351
312
305
302
304
304
307
310
315
318
321
319
322
325
328
329
332
336
260
440
438
347
336
339
342
345
352
361
377
394
409
417
388
338
316
312
314
314
318
320
324
324
329
331
335
333
333
336
342
339
342
346
315
347
425
375
339
342
344
348
350
357
368
384
397
411
400
351
317
308
307
305
307
309
311
316
317
318
320
320
325
324
327
329
307
326
379
369
328
330
331
336
342
351
365
382
397
411
399
351
315
309
309
311
315
317
319
323
325
325
327
332
333
333
337
338
245
439
418
337
337
337
339
343
349
360
372
393
404
406
371
321
304
303
302
304
308
311
313
316
317
314
316
324
326
327
328
332
258
431
428
345
327
328
331
337
342
347
361
376
392
402
378
324
301
296
294
295
297
298
301
304
302
306
313
315
316
320
317
237
429
409
329
323
329
326
334
340
352
365
385
398
405
371
324
306
303
304
309
310
315
315
314
319
324
324
327
329
333
263
435
413
344
331
329
329
334
340
350
364
381
395
406
377
325
300
294
295
296
299
300
303
302
308
312
316
318
315
318
265
382
407
341
318
323
325
330
333
342
355
371
390
401
381
326
300
298
297
298
304
307
308
308
312
317
321
324
327
329
276
396
410
355
330
331
334
338
345
354
369
388
405
415
390
339
313
310
308
313
316
318
321
326
324
333
331
332
335
339
249
446
420
341
340
343
345
350
356
367
384
399
414
415
374
326
314
313
315
316
316
320
323
320
323
327
331
332
333
336
310
330
413
372
336
338
340
342
346
357
368
384
402
414
396
343
312
305
306
306
309
310
312
315
318
317
319
321
325
326
326
329
308
297
385
357
322
319
319
327
331
341
352
365
378
392
382
333
297
287
285
290
296
299
305
305
305
309
316
315
317
321
320
261
371
384
323
327
331
339
344
353
366
383
402
415
414
358
325
314
315
318
321
321
324
330
325
324
319
319
318
240
436
439
329
315
316
317
320
325
333
348
364
380
389
353
299
282
281
284
287
290
294
297
301
305
304
304
307
308
170
541
399
310
313
318
322
327
334
344
362
384
402
404
357
313
305
305
308
310
314
319
323
331
331
331
333
336
337
285
379
500
348
331
332
335
338
344
353
368
388
408
420
402
342
317
313
313
316
320
322
329
331
333
331
332
335
333
334
337
324
255
503
372
327
328
327
332
338
345
358
375
391
405
402
350
307
300
297
298
299
303
308
312
315
317
318
319
317
320
327
328
329
329
326
234
456
391
329
331
333
338
342
349
361
375
391
401
406
369
321
307
308
308
311
315
316
319
321
322
324
324
320
322
331
332
333
336
336
243
417
404
334
335
337
340
346
352
364
376
391
402
406
372
325
308
306
307
310
313
315
318
321
322
323
324
325
326
326
328
335
335
336
339
315
326
407
376
334
335
337
340
346
354
365
379
394
405
406
368
323
310
309
310
311
315
317
318
321
326
325
325
323
322
331
332
333
336
335
238
420
405
328
329
332
336
339
345
354
368
386
398
403
371
321
303
300
300
300
303
305
310
313
316
318
319
320
315
319
329
328
330
332
325
259
399
386
326
328
332
337
341
346
357
372
388
399
402
368
320
303
300
301
302
306
311
315
318
318
317
319
328
329
331
334
324
282
387
390
332
335
339
342
347
354
366
383
399
412
408
361
319
309
307
307
308
313
316
319
322
323
323
323
326
332
332
333
336
314
307
420
371
331
332
335
338
341
348
358
376
395
406
402
355
316
307
305
305
308
310
313
315
318
321
317
321
327
329
331
333
336
251
439
440
339
332
333
336
339
345
354
369
388
403
413
388
337
311
306
307
307
308
311
313
316
317
321
322
324
319
321
330
332
333
336
336
238
442
423
332
333
334
337
342
348
358
373
392
405
413
387
337
314
310
308
309
313
314
317
320
322
321
322
325
331
331
332
336
289
373
428
358
329
332
334
339
343
352
364
382
398
409
398
345
313
307
306
306
308
312
316
319
323
324
326
327
330
326
327
334
336
337
339
339
243
454
435
336
335
338
340
343
348
357
369
386
402
411
391
342
314
311
307
309
311
313
317
318
319
321
324
323
319
323
330
326
330
329
330
243
434
418
329
325
328
328
331
335
345
359
375
391
399
380
329
299
295
292
295
297
299
302
305
308
305
311
312
318
317
319
323
250
417
423
333
317
318
319
322
329
341
352
369
387
399
380
328
299
294
294
294
296
300
303
306
309
313
314
310
311
323
323
325
327
329
226
443
408
327
332
330
333
338
346
354
370
389
406
412
381
328
311
310
310
311
311
315
319
322
327
325
328
337
338
339
342
343
252
431
416
342
343
346
350
353
359
369
385
401
415
420
380
329
315
315
310
313
315
316
320
322
319
322
323
332
332
333
335
279
413
411
360
331
337
342
340
344
358
369
388
403
412
402
354
321
316
314
314
316
320
324
331
331
337
341
342
345
344
251
441
405
336
336
338
342
347
354
365
379
398
410
411
363
317
305
305
305
306
307
309
309
312
316
315
316
317
321
211
451
410
315
317
319
322
325
331
340
355
374
387
392
354
305
291
289
290
292
293
295
296
300
308
309
310
312
315
233
418
415
322
318
320
324
327
334
344
359
378
392
401
372
323
303
299
300
303
306
307
311
311
315
324
325
326
330
332
255
437
423
341
335
336
339
344
351
359
375
390
404
413
387
336
310
307
308
311
313
317
320
323
328
329
329
332
333
243
421
412
331
333
335
336
342
350
359
373
392
404
406
368
319
304
302
302
304
307
309
311
311
308
310
318
319
319
321
320
234
427
422
321
316
317
321
324
330
338
350
366
383
392
370
321
298
293
293
294
296
303
306
309
312
313
316
324
323
333
328
299
318
402
369
335
336
341
343
349
354
368
383
401
411
405
356
319
311
312
310
314
320
322
326
327
331
335
337
340
339
342
271
443
425
359
342
342
346
351
354
364
376
392
410
419
420
362
308
308
309
309
315
321
323
324
325
325
326
325
325
329
293
341
415
360
331
334
338
342
346
353
364
381
398
407
395
344
310
305
304
307
310
315
317
320
322
321
320
328
328
328
330
334
255
432
424
336
327
330
333
337
341
351
364
380
394
404
385
337
308
305
306
307
310
314
317
319
322
322
324
334
332
333
335
335
242
418
407
332
333
337
337
343
350
359
376
393
407
409
374
326
310
308
309
311
316
318
321
324
326
321
324
332
332
333
336
329
270
388
394
329
335
337
340
341
350
366
377
392
398
409
368
327
310
311
304
310
309
313
304
323
328
333
332
334
340
338
270
453
398
346
346
343
346
349
357
371
379
398
410
416
390
336
314
312
310
312
315
320
319
320
325
327
328
327
329
329
308
327
366
359
328
328
329
332
340
343
353
370
386
397
386
340
306
300
298
298
300
305
309
311
311
309
319
325
322
323
327
318
278
368
369
324
326
328
331
337
344
354
366
383
399
395
354
311
304
302
304
302
302
311
314
317
322
326
328
331
333
337
303
368
376
365
335
336
342
344
349
356
370
387
400
409
395
344
308
301
299
300
304
305
308
313
311
311
311
313
320
319
321
322
317
256
380
372
320
320
321
327
331
337
345
361
377
388
390
349
311
299
296
298
301
302
306
309
313
314
312
313
323
323
326
325
332
250
434
412
336
335
337
340
345
351
363
374
391
402
415
388
343
320
314
310
319
318
323
327
327
329
328
334
338
340
343
344
347
285
441
417
364
346
349
351
353
360
369
380
396
409
418
401
352
319
312
311
312
312
316
318
321
320
318
320
325
324
325
326
324
249
393
379
320
323
324
328
332
337
346
363
379
390
393
356
314
301
300
301
301
306
308
309
313
315
311
313
320
325
325
329
329
248
428
409
332
325
332
330
336
343
350
367
377
393
401
377
328
302
300
298
300
302
307
310
316
319
325
325
327
331
325
286
372
387
333
337
340
343
347
354
365
383
398
411
405
360
317
309
307
307
309
312
313
319
323
322
323
325
329
314
298
392
368
329
332
333
335
340
345
356
374
390
400
391
343
310
307
306
306
307
309
311
315
319
323
322
325
326
322
261
380
381
329
333
332
335
339
345
357
372
388
399
394
352
313
304
303
303
305
309
310
310
313
316
315
319
322
325
284
369
392
352
328
330
334
335
344
353
366
382
396
407
391
342
313
304
306
308
310
315
316
319
323
322
331
328
331
332
333
250
396
401
335
334
337
344
344
352
362
375
391
406
403
370
324
310
310
313
296
299
325
333
322
325
326
319
319
320
239
424
448
322
330
330
328
344
338
353
393
403
409
431
488
339
277
286
349
307
284
287
318
311
333
356
316
317
266
389
420
315
310
354
337
313
331
373
360
379
371
405
376
318
320
282
326
335
229
291
310
289
295
314
328
304
314
343
222
428
409
319
310
320
334
328
320
409
389
323
381
391
373
312
263
293
303
268
311
284
310
293
320
283
332
290
317
343
360
379
359
331
332
320
475
361
353
300
359
347
369
308
327
342
356
332
465
440
280
294
310
276
311
317
334
281
322
336
346
308
326
322
344
326
335
284
365
434
380
340
332
347
349
355
362
375
395
408
424
413
364
331
328
324
324
330
334
335
340
338
335
336
338
339
342
345
337
283
410
392
338
339
339
341
344
350
363
377
394
406
401
354
312
304
301
304
303
312
314
316
314
319
320
321
320
324
326
264
392
414
338
319
316
320
323
327
335
350
365
383
392
371
316
291
285
285
285
291
294
297
298
299
303
306
305
309
315
311
237
423
410
322
313
317
320
325
335
346
358
376
392
404
382
327
299
294
294
299
303
305
315
313
314
317
327
327
333
336
336
242
437
411
338
340
341
345
351
358
369
388
406
420
425
383
335
324
322
322
325
328
331
337
336
341
341
347
345
349
348
301
406
437
369
343
342
342
345
349
357
371
387
403
414
396
343
307
302
297
297
300
301
304
306
308
310
309
309
313
315
216
425
396
312
310
311
314
319
324
337
353
371
384
390
354
304
288
287
290
293
299
305
308
313
313
322
321
325
329
328
245
420
394
330
334
334
339
344
352
365
380
398
412
411
365
322
314
313
315
317
322
325
326
327
328
328
334
337
337
340
343
253
455
444
343
337
339
340
345
350
360
374
394
406
414
389
339
312
308
311
312
315
320
323
324
325
328
330
334
332
336
340
318
329
409
377
333
335
337
339
342
353
363
380
394
409
398
351
310
301
302
300
302
306
309
311
314
309
311
315
316
319
321
327
257
408
421
338
318
320
323
323
330
339
354
373
388
396
381
327
298
293
293
299
300
305
308
312
314
314
315
318
323
324
329
332
287
376
419
359
332
333
336
339
345
352
366
384
400
410
398
351
315
306
306
308
310
314
316
320
319
322
324
330
330
329
331
318
281
393
376
328
326
326
331
335
342
352
369
383
396
390
346
304
293
292
292
295
298
303
305
308
310
307
310
316
320
320
324
327
250
423
432
336
326
327
330
332
338
347
363
382
397
406
389
339
310
305
305
307
312
313
319
324
327
330
333
334
331
333
339
343
343
348
348
255
433
417
343
344
347
350
355
360
369
382
398
413
420
391
340
320
313
314
315
326
347
312
323
326
330
326
331
337
333
339
335
338
249
456
443
340
334
336
337
343
348
354
371
385
401
412
391
339
310
301
302
303
304
308
309
309
313
310
309
311
320
322
322
324
321
225
423
394
318
317
321
325
326
333
343
361
376
391
398
363
311
290
289
288
291
295
298
305
301
308
310
315
317
312
321
293
334
384
363
322
327
332
332
340
344
359
376
394
405
399
348
311
306
301
303
307
309
309
311
314
321
321
323
327
326
251
429
440
343
331
328
336
336
345
351
365
384
396
411
391
336
309
305
305
304
309
308
311
316
313
321
326
331
332
334
220
460
430
331
331
334
336
338
343
358
376
392
407
413
376
325
311
308
307
307
310
310
314
314
314
339
334
332
338
336
230
443
422
327
327
329
331
335
345
356
368
386
399
402
371
321
300
297
297
298
303
307
305
316
318
322
323
326
329
287
392
375
358
328
331
333
340
346
357
370
388
400
414
399
351
316
309
312
311
314
317
316
322
323
326
328
330
335
267
425
427
350
335
338
339
342
348
356
369
388
400
406
385
332
308
305
307
309
310
312
313
317
322
320
323
326
325
237
415
393
327
330
333
336
341
348
359
376
396
406
405
362
317
310
309
313
315
318
320
319
320
327
329
332
336
341
251
431
416
344
342
346
346
353
359
371
384
400
407
415
383
333
313
310
309
312
313
319
323
323
321
322
326
327
250
384
387
323
325
328
329
333
340
347
362
390
394
391
349
301
286
279
286
290
295
295
305
304
304
314
307
255
416
356
330
313
325
325
333
337
349
366
386
404
402
376
336
302
306
318
325
323
324
328
325
324
332
325
306
341
403
366
337
341
341
350
361
369
387
406
417
431
405
349
314
307
310
305
313
316
327
322
327
329
326
233
451
436
327
320
326
325
330
337
350
369
384
400
400
351
299
284
286
287
289
297
300
303
305
304
309
308
207
408
377
311
315
318
320
324
332
347
364
384
395
392
340
302
297
298
299
303
306
312
317
317
320
322
325
231
444
430
329
327
328
333
337
345
356
368
388
397
405
363
315
300
299
301
301
304
304
306
311
312
315
318
320
303
295
383
364
323
321
325
328
338
347
356
377
397
401
393
344
309
308
311
318
318
319
334
332
338
339
345
346
336
302
395
395
344
346
352
350
357
366
384
396
412
421
405
348
316
310
305
307
311
318
323
329
328
330
330
326
256
401
382
326
335
332
333
343
349
361
384
393
408
395
340
304
297
294
298
297
302
307
308
308
313
316
316
230
406
383
321
324
326
330
335
342
353
372
389
399
387
335
303
299
299
303
306
309
308
311
319
318
319
320
321
218
419
400
320
321
323
326
331
338
348
363
380
393
387
343
301
290
288
292
294
297
301
307
312
314
315
319
257
396
399
335
317
322
325
327
332
345
359
373
385
395
363
317
297
300
301
301
307
312
318
315
318
320
326
263
438
406
346
335
343
344
348
355
361
378
395
407
416
384
341
321
319
322
325
329
336
337
334
338
340
339
250
448
417
340
338
339
343
347
354
364
376
396
408
405
361
316
307
305
305
312
318
321
325
323
324
327
319
234
444
372
324
325
327
334
337
347
360
378
395
407
395
337
312
310
314
313
315
326
327
329
329
330
327
320
232
466
354
324
328
328
331
337
349
360
379
391
401
383
330
301
297
296
300
304
304
315
316
318
320
321
325
301
333
383
364
326
331
335
338
342
352
361
376
391
403
385
334
304
300
301
302
305
308
312
313
308
315
315
316
315
319
321
243
426
406
333
321
322
323
327
333
344
355
366
377
388
371
324
302
301
302
305
311
313
318
318
324
326
324
325
332
333
333
335
338
205
525
403
327
329
329
334
336
347
357
367
388
393
400
368
320
306
301
303
306
308
313
318
319
320
318
330
327
330
334
336
250
388
409
333
337
339
340
341
355
365
370
364
385
401
374
319
300
300
310
304
307
317
331
332
338
339
336
343
338
333
218
468
416
327
315
332
335
351
342
365
374
392
410
401
356
309
300
294
293
293
294
299
304
307
316
318
322
320
319
321
225
422
404
314
313
321
325
329
335
351
376
375
390
396
359
308
290
296
291
303
307
316
317
316
325
329
330
330
330
340
338
339
339
342
217
528
444
331
340
342
345
354
357
361
369
386
393
402
377
328
310
315
311
310
315
318
321
320
326
326
323
323
322
320
320
326
323
325
326
260
381
440
322
309
307
312
318
327
339
351
364
375
381
373
324
290
282
282
288
291
297
299
302
308
312
309
310
313
319
321
322
326
264
418
404
354
334
335
338
345
350
361
370
384
397
408
398
354
316
316
316
318
317
320
319
320
325
322
324
331
331
333
332
343
252
413
419
341
338
339
338
343
348
356
373
384
397
407
382
331
314
313
309
308
309
312
316
321
321
329
329
335
338
310
395
389
378
343
337
340
341
347
356
366
380
393
402
391
339
309
305
303
304
303
304
301
306
310
308
314
317
321
274
368
436
339
319
320
325
326
336
347
358
378
395
406
389
335
310
312
310
309
309
311
321
323
328
329
328
331
271
420
442
350
333
334
337
340
345
356
371
388
404
416
389
334
312
310
310
310
311
313
321
325
326
326
328
331
230
471
417
334
331
334
338
344
355
365
378
392
403
409
367
321
310
312
313
315
317
318
319
319
319
321
322
324
327
300
276
519
342
318
319
320
324
330
339
348
363
378
388
375
323
296
295
294
296
297
300
300
307
309
308
309
312
314
196
516
423
316
317
320
327
332
338
351
364
381
395
402
365
316
301
300
300
301
304
307
308
310
315
314
315
318
322
227
394
393
324
327
330
334
339
348
359
374
387
399
400
357
314
305
304
306
307
308
313
311
315
318
323
323
327
329
238
429
412
335
332
333
338
343
351
360
372
385
397
403
374
324
308
310
310
311
314
317
315
319
322
324
328
329
331
259
432
413
346
332
332
336
339
348
356
368
384
393
400
373
324
303
299
300
301
303
304
304
309
310
312
314
315
319
258
413
389
342
319
324
326
331
336
349
363
380
394
403
383
328
306
304
302
304
309
315
320
324
327
334
334
336
336
311
295
458
361
330
331
334
339
347
356
369
384
399
409
392
341
316
313
313
315
315
316
315
315
320
318
327
325
328
334
282
365
487
365
341
342
340
347
349
353
359
378
390
400
380
327
300
297
299
302
300
307
299
303
297
307
308
309
311
293
257
332
358
291
304
313
317
322
324
329
350
368
346
333
345
292
285
272
281
283
289
293
301
308
318
314
329
336
271
440
404
359
355
358
362
369
376
382
396
412
430
436
407
360
344
337
337
330
333
330
332
336
336
338
340
344
295
412
393
361
342
339
344
350
351
362
374
391
397
408
378
335
309
306
305
310
315
315
327
326
326
325
329
332
251
457
419
346
343
343
344
344
352
359
367
381
394
397
354
313
301
300
302
303
305
309
313
311
307
308
305
294
257
388
352
307
310
311
316
321
329
341
359
374
388
369
317
289
288
287
288
292
293
299
303
307
308
312
314
320
220
428
399
325
326
330
334
337
346
357
375
395
401
403
361
318
310
307
307
311
311
317
320
323
326
325
330
331
260
432
421
343
330
331
332
334
344
351
368
381
396
402
372
321
305
304
302
307
311
316
317
317
320
319
318
319
318
193
511
389
313
318
322
327
331
340
352
367
383
393
394
347
310
303
303
305
303
308
310
321
322
325
325
325
327
311
251
474
360
324
330
333
337
346
353
365
381
397
408
393
342
318
311
311
312
316
321
325
327
332
335
338
339
339
337
291
366
467
356
337
338
341
343
351
359
370
388
403
416
397
344
319
314
310
310
314
318
320
321
327
329
327
327
328
329
236
449
429
333
328
327
331
337
340
351
366
384
394
402
372
323
304
300
303
304
305
310
311
318
322
322
324
327
331
253
431
410
344
328
332
334
339
344
353
364
381
392
400
373
324
307
303
302
305
306
309
312
312
314
316
321
322
325
327
269
400
408
351
330
330
333
337
346
354
362
376
392
398
382
333
309
307
304
306
308
312
311
312
314
319
318
319
320
323
234
417
401
323
321
323
325
326
335
341
356
369
381
387
353
308
293
291
290
292
295
297
302
304
306
313
314
315
319
320
240
383
394
326
328
331
334
341
347
358
372
390
400
399
356
319
308
307
308
309
313
314
317
320
325
326
329
331
331
245
411
398
335
337
342
344
349
354
365
380
397
410
404
358
325
317
313
312
314
314
319
320
325
333
334
334
336
337
236
445
426
335
337
337
342
339
347
359
375
391
408
414
370
327
313
314
310
308
306
312
317
320
321
320
324
332
331
333
332
333
225
460
418
333
329
332
333
342
347
356
370
391
403
410
372
331
321
313
314
311
310
311
311
313
313
316
317
327
329
335
338
337
263
385
396
334
333
333
338
337
347
360
375
393
404
403
364
321
309
309
307
307
310
317
317
326
325
331
337
335
338
311
363
386
384
335
336
342
341
346
355
365
381
392
405
389
338
317
312
310
306
310
309
308
300
305
305
309
312
313
314
314
224
432
367
313
313
314
315
321
332
344
357
375
389
378
331
299
296
296
296
295
293
293
298
302
308
314
317
322
282
353
402
345
320
323
323
329
336
347
361
375
393
403
380
329
309
306
304
305
306
306
301
317
318
328
319
328
316
341
277
363
393
368
365
374
376
382
392
393
409
406
425
407
373
330
330
329
332
330
336
333
330
331
330
340
343
341
351
315
339
506
356
330
319
326
328
328
342
365
381
406
413
399
345
317
305
305
308
313
307
311
308
316
318
321
316
324
237
431
410
330
322
324
332
335
344
353
367
383
394
399
356
310
292
292
298
303
307
312
316
312
304
313
319
308
318
320
318
221
457
423
328
335
336
337
338
348
360
372
388
399
405
373
324
305
312
314
312
316
320
319
321
327
333
338
340
349
276
428
434
358
344
347
352
348
355
364
381
394
403
410
379
332
310
309
309
313
314
315
316
314
329
330
329
332
332
251
390
398
330
332
332
338
347
347
362
379
392
403
401
359
309
298
297
299
301
308
303
312
312
315
316
317
319
289
334
365
355
315
317
321
323
331
338
351
368
383
394
373
319
295
295
294
297
299
299
302
309
311
309
315
318
303
279
372
367
320
325
327
331
340
350
361
382
397
406
386
334
305
303
304
304
307
311
314
313
315
327
328
331
334
334
238
426
414
333
336
340
342
348
357
367
384
397
413
409
363
323
314
313
314
314
318
321
323
324
332
333
334
334
338
256
441
423
343
337
343
347
349
356
368
383
398
412
412
375
327
310
308
308
310
316
315
317
322
319
331
326
331
333
309
344
382
373
333
336
339
342
353
358
370
388
402
410
389
338
307
303
301
303
307
309
312
314
319
316
320
323
311
287
376
364
314
319
321
323
329
338
353
368
385
395
374
316
292
287
287
289
289
294
293
297
297
303
303
306
307
235
404
417
322
305
309
309
317
325
336
354
372
387
395
359
309
291
293
294
294
302
305
307
308
314
318
326
329
328
337
275
400
439
355
334
334
339
339
348
359
372
391
405
414
386
331
308
308
306
305
312
319
317
321
318
317
326
327
326
330
330
234
418
408
329
330
328
328
332
339
345
381
377
404
400
365
313
314
306
306
310
312
319
318
300
307
309
309
314
318
323
224
455
470
325
317
332
333
330
352
357
369
393
409
422
387
329
311
314
316
317
313
315
318
318
322
328
329
330
334
333
278
364
496
339
327
325
326
325
332
338
359
369
388
398
375
319
290
298
294
287
295
301
297
298
307
306
302
314
316
320
327
317
295
383
384
338
336
338
347
352
358
367
387
397
407
395
342
311
304
304
312
310
309
319
316
322
315
315
319
321
324
326
328
303
336
395
371
330
328
337
336
348
353
364
384
398
406
396
348
315
309
311
308
316
319
320
319
324
324
331
332
331
333
276
413
384
355
327
327
327
331
338
348
361
374
393
400
374
321
295
290
293
291
293
298
296
303
308
309
309
315
317
241
423
412
331
322
322
325
333
336
348
365
388
402
408
373
322
305
304
305
305
310
314
316
319
325
333
333
338
339
320
292
399
381
332
335
336
339
346
355
369
384
401
414
393
341
308
300
298
295
297
301
302
307
314
314
309
313
313
231
369
375
304
306
308
309
317
323
335
348
364
370
372
323
286
273
276
275
281
285
292
293
295
298
300
300
303
255
356
356
312
316
321
331
336
350
359
377
392
405
393
345
315
323
311
315
325
325
339
332
329
324
328
323
253
456
378
321
328
336
354
368
386
407
426
441
448
430
369
326
314
315
317
320
324
336
340
348
347
350
350
260
499
437
348
339
345
345
351
362
370
388
410
421
421
380
335
322
321
319
322
328
321
327
326
329
324
328
333
298
384
399
367
341
346
348
352
348
363
380
404
409
419
385
333
305
307
304
298
300
303
303
302
307
306
311
309
312
317
249
403
406
334
319
317
322
325
331
344
359
375
394
402
369
316
292
291
292
293
293
297
300
308
309
316
315
313
318
329
330
328
330
335
221
471
435
335
335
336
341
343
352
362
377
399
414
420
378
325
307
303
306
308
315
317
321
319
325
326
328
330
330
331
336
338
343
339
342
288
385
471
365
338
339
343
347
353
361
366
381
395
398
384
319
298
297
302
306
309
317
318
321
322
324
326
324
326
327
331
332
332
339
342
342
342
343
223
523
483
333
334
335
337
339
341
349
363
381
396
407
383
332
309
307
307
306
312
313
317
320
322
322
320
320
318
324
321
324
327
334
335
335
334
222
492
454
328
325
327
328
333
333
337
348
362
377
383
357
308
280
277
277
278
278
284
285
285
285
288
289
293
292
296
300
220
417
397
325
308
310
316
322
331
341
356
375
391
401
371
313
293
293
294
297
301
304
305
306
305
310
313
316
318
320
323
213
444
408
323
323
323
326
334
340
353
371
388
400
405
364
316
305
304
306
308
313
317
317
322
327
331
336
337
342
256
443
438
348
341
342
345
350
357
368
385
403
415
421
385
331
316
311
312
311
311
311
313
315
323
320
320
321
320
231
389
388
315
319
320
323
328
335
344
361
378
391
392
345
302
290
289
291
295
299
301
307
311
315
318
323
324
295
342
385
364
329
333
335
342
351
362
375
394
409
419
400
347
319
317
317
318
320
324
325
329
334
335
339
338
342
275
437
418
355
342
343
348
352
362
369
385
401
414
421
396
342
318
318
316
319
321
322
328
332
334
336
337
341
274
433
420
357
332
332
335
340
344
354
365
385
398
404
369
310
295
301
296
292
298
295
300
300
303
306
309
311
284
266
468
339
315
318
317
320
327
337
349
369
388
396
373
325
301
303
301
302
304
304
307
308
312
319
319
322
328
326
237
427
391
334
337
340
345
352
362
375
390
406
418
409
357
320
315
316
317
321
324
328
332
338
338
340
342
343
243
421
423
341
344
346
348
355
362
373
388
400
412
406
357
316
309
309
311
312
315
316
315
317
326
326
330
330
332
231
417
416
329
330
331
336
341
349
360
375
390
400
401
361
315
304
303
305
307
310
314
317
319
321
319
320
325
329
332
332
337
279
395
432
358
333
335
339
340
345
354
366
384
396
406
390
338
308
302
304
306
308
310
314
317
316
319
321
331
329
331
333
333
233
419
412
332
333
336
338
343
352
361
374
391
401
401
361
309
296
294
296
289
293
296
298
296
292
293
304
303
302
302
303
200
389
378
291
288
288
290
294
298
312
328
341
354
353
322
273
259
260
264
271
275
283
286
290
300
303
308
311
315
222
404
406
325
326
332
339
346
355
367
382
401
411
412
367
322
312
320
320
323
333
336
336
346
340
352
345
339
346
295
387
447
367
351
342
351
352
356
373
383
400
418
425
403
353
329
329
326
329
333
334
342
344
343
344
348
350
267
457
448
359
345
348
350
352
358
369
382
400
413
418
374
329
311
308
307
314
310
320
318
315
318
316
319
260
387
400
331
306
313
315
315
324
339
355
372
391
395
359
313
294
290
296
302
301
314
317
319
324
324
329
255
453
429
344
336
339
346
352
360
371
386
400
416
419
374
328
317
316
318
316
321
322
328
327
328
333
320
248
480
370
329
328
329
332
337
347
360
380
396
407
378
320
298
296
294
293
297
297
300
306
310
314
314
292
274
441
351
308
310
312
313
316
325
339
360
378
390
361
303
286
281
281
284
285
287
292
300
301
307
313
316
217
428
429
322
321
323
328
335
341
356
378
395
409
401
366
323
311
306
310
306
307
332
324
309
324
312
332
346
357
367
368
328
346
341
353
339
351
378
392
424
409
416
310
341
346
293
312
336
333
344
342
325
342
347
348
341
356
242
546
424
374
361
360
345
349
354
373
369
390
423
385
342
319
314
317
322
317
327
323
340
359
283
334
334
230
479
475
307
369
335
324
322
336
341
347
362
368
386
333
295
286
290
289
292
290
295
302
296
296
303
312
312
248
364
451
329
302
297
302
304
310
315
326
347
365
374
344
286
271
272
269
272
276
280
274
277
294
292
297
305
304
185
409
400
314
318
324
329
333
346
356
374
390
407
399
346
312
312
309
316
319
323
324
327
336
341
343
342
348
244
444
473
353
350
357
356
366
370
384
398
418
424
424
386
339
327
329
324
340
327
332
331
332
347
337
357
347
362
248
430
438
351
341
343
348
359
351
368
389
397
417
411
368
318
316
315
320
319
323
313
322
324
324
330
332
336
236
413
429
334
327
338
332
340
355
362
376
395
405
397
354
315
302
312
301
312
313
310
314
326
324
332
330
339
234
439
454
340
331
327
334
341
346
356
375
391
395
400
359
314
299
308
307
307
306
308
312
318
317
326
327
317
223
423
459
327
318
322
334
333
337
355
360
384
395
395
348
313
303
310
310
305
309
320
320
318
327
326
329
333
324
257
430
388
333
332
332
338
340
352
365
379
399
410
388
335
306
303
304
308
310
313
312
318
320
328
328
328
332
273
385
456
359
333
335
334
341
344
354
370
384
402
409
378
325
308
306
304
303
306
314
311
312
313
321
321
320
229
413
417
317
321
329
302
323
366
340
351
393
382
392
341
297
289
278
295
285
290
299
295
313
308
299
313
307
214
388
367
301
307
320
323
316
328
348
381
368
386
372
316
299
301
311
302
311
314
318
298
334
331
321
343
299
335
458
372
343
336
346
344
347
364
372
392
416
415
383
343
307
315
331
319
314
324
322
334
327
329
335
336
240
409
428
342
342
345
344
351
357
368
384
396
412
406
364
326
319
318
322
323
329
334
339
337
340
342
343
304
375
435
376
342
344
346
348
355
364
379
395
408
413
383
329
312
311
312
313
315
319
323
325
325
323
327
314
271
411
376
324
328
328
332
336
342
358
374
389
400
377
330
306
306
300
303
302
309
313
311
306
314
312
228
399
421
329
325
331
334
343
349
364
379
395
412
395
348
318
308
302
302
302
308
301
300
297
302
293
204
398
394
303
302
304
314
324
335
347
361
381
398
391
341
311
302
301
309
315
325
327
332
336
336
337
224
489
452
347
342
346
347
353
352
362
380
395
411
399
340
306
302
299
303
301
305
309
317
313
316
317
197
490
449
321
322
323
326
327
337
345
364
379
395
387
327
291
286
287
289
291
299
304
310
314
318
321
322
172
545
414
318
321
327
327
336
344
355
373
390
396
383
332
305
299
295
302
303
311
313
318
321
322
325
324
228
442
498
327
319
322
325
330
339
354
362
383
392
398
351
303
293
292
299
303
305
312
311
320
318
317
217
453
395
325
333
333
337
341
353
368
384
398
408
373
320
305
305
305
308
308
316
317
321
328
328
217
406
416
337
338
340
345
350
356
372
386
400
410
386
333
310
310
310
313
315
322
325
331
335
329
215
420
439
335
335
337
344
344
355
363
380
393
404
392
338
313
309
316
309
311
311
324
326
329
330
224
380
418
330
333
342
340
350
359
375
371
388
398
378
326
307
299
297
306
308
314
316
321
325
278
401
392
362
326
331
336
341
346
355
366
379
392
392
350
308
295
296
296
297
302
304
302
304
302
193
419
430
307
306
309
312
313
322
333
353
373
380
367
316
290
290
290
291
299
301
303
306
314
255
357
452
346
322
325
331
334
345
356
371
389
401
401
351
311
305
307
308
316
319
319
325
327
328
236
372
409
331
335
334
343
345
350
368
386
401
408
385
340
322
319
321
321
327
324
330
332
338
266
443
434
360
349
350
356
360
372
378
395
407
421
407
359
323
318
318
316
322
329
329
331
327
278
327
487
351
328
327
328
332
343
352
371
388
404
400
346
308
308
311
302
304
305
311
314
318
318
217
366
405
324
328
333
330
340
351
363
384
394
404
370
323
302
306
305
303
315
312
313
320
320
271
409
403
356
332
336
343
344
356
367
388
400
416
407
363
328
321
322
323
325
325
333
334
336
325
256
396
391
338
341
342
347
350
361
375
392
405
405
364
314
306
313
305
301
301
311
313
312
315
292
242
461
353
312
312
313
315
322
332
346
362
378
372
322
282
278
277
281
279
277
284
295
297
300
302
183
397
419
310
308
311
319
324
334
344
363
379
391
366
315
294
292
296
298
299
301
306
307
321
324
326
332
226
434
465
339
334
337
341
346
356
368
381
396
410
397
353
315
317
314
314
316
316
319
327
332
331
336
266
425
444
358
341
343
346
351
356
371
389
403
416
407
353
321
313
314
315
321
322
323
333
334
339
342
282
369
471
364
336
338
343
344
352
363
383
396
410
404
356
318
307
308
309
310
308
313
321
330
327
329
328
214
423
434
326
327
328
333
336
345
357
375
389
401
375
326
301
297
294
300
297
301
307
308
311
314
314
224
365
411
324
325
328
332
337
347
363
380
399
410
383
331
311
313
310
314
316
322
325
332
329
331
334
225
417
405
331
332
336
339
342
350
367
386
402
409
374
320
307
297
302
301
302
296
303
316
313
311
323
201
409
425
328
328
331
335
340
344
357
382
397
401
378
322
305
303
301
301
306
306
306
319
321
324
325
266
394
445
349
330
335
336
346
350
358
376
397
404
396
345
307
305
302
301
306
305
307
307
313
315
319
321
249
372
452
330
318
319
314
320
329
337
352
375
389
379
328
286
285
288
292
294
296
302
304
307
319
318
324
322
224
423
388
322
327
333
339
342
352
366
389
404
406
371
323
312
311
306
312
319
321
324
336
343
344
348
344
264
399
416
341
356
357
363
364
377
392
413
433
436
396
346
328
323
329
336
338
346
346
352
348
347
351
260
433
483
357
338
336
337
342
351
358
380
399
406
394
334
298
291
292
289
291
292
296
300
308
303
304
305
227
392
448
322
313
319
319
323
333
339
352
375
387
376
320
283
279
281
279
281
282
280
288
288
296
297
303
307
213
381
376
306
310
316
319
325
329
343
361
376
388
362
309
291
289
289
292
292
299
301
304
306
313
313
315
317
216
401
398
323
326
328
335
343
352
365
387
398
411
379
328
305
302
298
303
307
318
319
327
325
333
335
335
344
242
450
422
341
340
343
345
351
361
378
395
411
427
400
354
324
319
317
320
318
322
325
328
333
329
337
337
338
224
456
412
338
340
343
346
350
357
373
397
403
415
394
335
309
312
307
306
309
315
319
321
320
320
328
332
332
334
326
252
440
385
332
336
336
337
342
351
367
382
400
412
385
334
312
310
313
310
314
318
327
325
321
325
329
335
331
336
339
243
452
461
346
343
338
345
348
347
368
379
399
410
411
363
318
313
310
311
309
318
316
320
325
321
320
327
328
328
329
331
236
448
452
343
333
334
341
352
335
384
369
385
408
407
364
305
311
309
299
296
311
306
321
312
321
320
321
328
326
303
304
438
370
317
325
327
330
332
363
361
370
399
403
359
314
302
293
301
298
295
300
301
313
307
312
312
323
323
319
330
326
207
472
424
333
340
333
337
339
345
364
375
404
403
399
353
318
310
315
293
281
306
319
323
314
315
324
322
332
342
338
332
346
226
462
456
340
335
342
335
338
348
356
377
396
411
409
357
326
309
307
306
308
311
309
316
327
326
316
318
318
334
328
330
330
261
398
463
343
330
321
329
332
339
345
361
380
395
391
359
307
289
295
292
289
288
294
302
305
300
303
303
308
312
313
319
324
227
420
448
326
319
319
320
326
331
345
359
382
394
391
344
302
298
294
297
294
302
303
306
307
316
320
315
314
326
329
330
334
308
305
431
381
330
335
338
344
339
348
375
392
407
418
397
340
311
313
308
309
316
327
320
325
325
314
324
333
324
331
332
225
433
417
331
328
333
331
338
348
355
374
399
407
386
330
302
300
299
299
296
303
302
312
311
307
311
320
324
321
324
330
221
436
445
329
329
332
329
335
344
351
370
395
401
397
349
307
308
306
303
309
316
317
317
318
324
330
333
340
341
340
244
405
423
339
345
348
352
358
364
380
392
410
425
408
351
325
322
321
319
323
329
330
334
333
325
336
340
344
341
349
233
458
447
346
343
345
349
350
353
368
384
402
414
408
356
319
311
312
315
318
315
322
324
326
321
326
333
334
334
335
239
438
458
335
331
335
340
338
345
359
376
389
402
399
356
305
297
303
302
307
306
311
314
316
319
314
320
329
331
331
331
305
307
440
374
331
335
339
340
346
352
364
383
392
405
377
330
302
301
299
300
303
307
306
309
307
310
311
320
319
322
323
254
393
429
350
322
322
329
332
340
351
365
383
398
405
364
317
303
297
300
302
305
313
316
317
323
317
320
331
329
337
338
336
241
425
406
335
338
343
342
352
356
367
386
403
410
397
349
311
309
309
311
311
318
319
322
326
321
323
327
332
331
333
332
236
440
451
333
329
331
335
335
341
347
366
382
394
398
355
305
293
296
294
297
300
306
304
304
307
315
317
320
320
324
224
417
423
327
326
328
331
337
348
361
373
395
407
397
353
309
301
304
308
308
312
316
318
318
318
318
320
328
332
336
336
334
223
436
412
325
331
331
335
340
346
356
369
387
397
387
337
302
290
293
291
293
295
299
303
301
299
298
307
307
310
312
316
207
423
420
316
317
314
320
324
332
341
360
377
396
390
348
305
296
296
301
298
306
310
312
313
312
313
320
328
331
332
335
231
432
436
334
337
344
347
349
358
370
387
400
419
415
368
328
318
318
317
320
326
329
332
330
328
342
341
344
350
352
253
420
429
343
344
345
349
353
363
375
392
407
418
406
353
317
315
315
314
319
320
319
327
323
327
321
325
336
333
333
335
325
268
427
387
335
336
340
341
347
353
363
381
398
408
396
343
308
304
307
308
307
312
316
318
317
321
321
325
330
330
334
267
416
441
353
334
336
338
344
349
358
375
389
410
413
378
328
312
309
307
309
314
318
316
319
318
318
321
327
328
330
332
228
446
448
327
329
325
327
334
340
348
361
382
397
398
358
309
298
299
297
298
302
309
309
312
308
312
323
322
321
325
317
258
418
381
326
330
333
334
342
345
361
381
394
407
389
335
309
303
306
302
311
309
315
317
323
316
316
322
325
329
331
333
244
435
449
343
332
334
336
339
348
356
372
388
404
405
369
324
304
304
308
306
313
318
323
320
317
321
324
327
331
335
245
397
421
337
341
347
351
360
369
381
397
412
424
413
362
324
318
318
317
321
323
327
323
328
331
331
331
331
333
214
456
430
329
330
331
334
338
344
355
369
386
398
392
344
304
299
299
299
300
303
302
305
310
318
317
320
322
270
359
419
343
320
321
326
328
335
342
356
377
390
396
362
310
292
296
294
298
299
299
305
310
314
316
318
319
247
415
412
333
328
330
331
334
338
354
366
381
396
396
356
318
310
307
311
311
311
320
320
328
328
332
335
320
326
402
386
343
347
352
356
362
371
386
399
416
424
392
338
317
315
314
315
316
322
325
328
323
324
329
303
294
429
366
325
326
327
331
337
344
357
379
393
399
366
316
296
297
295
298
297
298
304
311
310
315
316
320
192
446
422
314
320
319
327
332
342
357
374
393
408
394
337
306
304
304
303
306
305
307
312
318
319
322
324
256
399
443
352
331
334
337
342
346
358
371
389
404
409
372
325
315
311
315
317
315
318
323
326
330
334
333
336
232
420
422
338
339
341
344
345
349
366
384
403
417
408
357
324
317
310
316
314
312
316
324
326
329
331
334
229
420
389
337
338
342
334
349
344
364
376
392
400
376
321
294
294
300
305
307
312
317
321
323
322
318
330
298
306
445
365
331
330
338
342
348
352
369
389
404
413
376
322
311
311
317
316
316
319
317
320
328
325
328
330
311
258
462
376
329
332
337
334
343
350
364
381
399
406
373
317
301
305
304
305
308
308
313
312
318
322
329
327
333
337
287
352
433
357
326
327
330
334
344
352
368
385
400
404
377
324
303
302
302
304
306
309
309
314
317
321
323
327
331
246
443
423
340
333
335
335
342
348
362
379
394
411
407
361
319
310
307
308
311
313
313
321
322
325
326
327
329
293
343
416
361
328
331
333
337
343
353
367
381
401
407
374
322
308
312
310
314
318
320
324
329
329
330
333
337
338
338
344
346
240
477
429
341
341
339
342
347
351
360
380
396
411
407
365
320
313
311
310
312
313
316
317
319
316
319
327
326
326
327
332
236
437
420
335
332
338
336
341
350
358
374
388
400
400
360
315
307
307
304
309
311
315
316
316
318
316
317
324
320
325
327
330
237
441
427
337
335
335
341
343
350
360
376
390
402
405
373
325
316
308
311
314
316
318
319
325
325
329
329
329
337
337
336
341
329
299
402
387
342
340
342
345
348
354
366
381
397
407
390
340
311
306
306
307
311
310
312
312
317
318
320
321
323
319
321
328
329
330
332
337
233
454
429
333
333
335
338
341
349
361
373
391
404
405
368
324
308
307
307
309
313
317
318
321
321
321
326
326
324
325
331
334
333
335
338
279
391
445
355
336
337
339
343
349
357
371
387
402
412
391
340
316
314
315
316
320
323
325
329
331
332
333
333
331
330
332
341
341
341
344
296
370
445
361
339
341
341
344
348
356
371
388
404
413
393
342
311
308
310
307
312
315
317
320
321
324
323
323
324
331
332
335
337
311
343
380
378
336
337
339
341
347
355
367
385
401
411
396
349
316
312
311
314
315
321
322
326
328
329
328
329
328
336
336
339
341
339
240
448
428
336
336
335
338
341
346
357
371
388
400
403
367
319
302
302
299
308
307
311
315
319
321
318
316
319
325
326
324
327
308
305
371
364
319
314
321
320
336
333
360
377
389
402
378
334
305
300
308
311
318
328
335
337
341
347
346
347
348
349
255
433
425
350
349
350
353
357
364
374
390
410
422
417
362
321
314
312
312
314
316
317
318
316
324
324
328
