351
388
420
430
368
278
254
261
260
267
274
280
281
295
300
304
310
316
188
575
362
329
333
341
348
363
388
426
458
474
427
329
296
305
307
313
318
319
325
335
340
341
346
349
201
620
384
359
363
368
379
391
421
453
480
488
428
336
308
311
313
316
320
327
326
330
331
337
340
342
315
370
452
351
350
353
359
369
389
420
453
466
454
363
294
288
288
293
295
298
301
299
303
309
308
308
309
280
348
421
310
306
308
315
321
339
372
403
421
405
309
241
236
239
239
241
245
252
244
265
268
261
267
273
160
491
327
284
284
293
306
316
340
374
403
417
385
296
255
254
258
270
276
283
286
299
308
303
310
313
180
519
340
326
335
341
353
372
400
435
455
457
382
300
286
286
289
293
294
294
300
304
298
297
299
183
536
338
299
303
300
311
323
344
382
412
428
379
278
242
245
249
253
256
260
264
283
278
280
287
265
307
419
307
307
313
324
337
358
391
430
451
435
340
284
283
287
290
297
303
310
312
328
331
333
335
338
202
623
383
357
358
363
370
388
410
444
471
481
439
342
304
305
304
311
314
315
321
338
335
333
340
323
336
454
355
351
356
364
375
398
427
457
475
460
368
302
298
297
304
308
311
313
311
327
324
321
323
324
160
600
352
335
333
337
348
362
385
419
443
451
395
302
278
280
284
287
293
297
294
318
312
308
312
315
161
566
349
326
333
339
347
362
392
421
446
458
402
317
288
288
289
297
300
303
317
331
315
317
322
251
475
377
331
333
337
348
361
385
416
449
462
431
335
287
288
293
297
301
304
309
331
315
316
320
295
355
429
332
333
338
347
358
378
411
445
463
442
347
289
288
290
294
297
302
305
332
322
318
323
324
152
592
349
331
333
342
349
368
396
429
454
455
386
299
279
283
285
290
293
295
304
315
309
310
314
260
417
396
325
323
328
338
351
373
405
431
448
423
330
282
283
282
288
293
294
299
318
308
310
314
304
276
453
329
325
331
338
350
369
397
431
448
436
348
284
280
285
287
290
291
304
313
305
308
310
254
428
390
319
318
321
328
340
361
388
416
429
396
301
253
256
253
256
259
260
261
270
281
274
273
279
191
445
340
287
289
296
305
317
340
374
398
415
391
303
257
257
265
271
276
282
284
291
303
303
305
312
267
406
403
330
331
338
347
360
384
414
445
461
441
352
297
294
298
303
308
313
318
319
328
333
329
335
340
196
613
376
349
350
357
365
378
400
436
463
473
426
332
301
304
304
308
311
317
323
326
322
343
340
335
339
338
171
621
363
345
345
350
360
375
397
429
454
461
410
319
284
287
289
292
297
298
301
301
317
311
311
313
306
263
439
334
324
331
339
349
369
396
427
447
443
365
291
278
284
287
295
299
300
298
308
318
310
314
317
226
509
374
324
325
334
343
355
378
411
442
456
424
326
279
280
284
287
290
296
302
300
316
319
314
319
322
179
607
356
330
332
336
344
358
380
412
441
452
403
305
271
272
274
274
277
282
283
281
299
299
292
293
293
143
567
323
294
293
300
308
320
339
373
400
408
359
269
234
235
238
242
245
252
254
262
267
267
271
276
166
492
334
292
300
304
314
331
356
387
415
430
393
298
262
265
271
276
281
286
290
292
300
309
310
314
316
177
533
342
333
337
345
358
376
406
441
465
467
394
313
302
305
309
314
319
324
326
335
338
340
344
348
197
632
380
358
359
365
373
387
409
441
467
477
421
328
301
302
303
303
306
307
308
315
314
317
319
323
184
565
360
326
329
333
342
355
382
413
437
451
399
308
275
276
281
285
292
297
302
305
312
315
322
272
423
399
336
337
342
352
363
387
417
447
463
440
343
291
292
295
299
304
308
308
318
325
323
325
327
185
544
349
338
343
347
357
374
402
439
463
461
378
301
290
293
296
299
302
303
313
320
319
322
326
162
606
357
339
340
345
353
368
393
431
455
464
395
305
289
290
292
298
302
304
310
309
318
319
322
284
377
416
329
325
328
335
345
362
393
426
443
425
327
268
263
268
270
270
274
276
286
291
287
293
297
143
518
330
302
310
315
330
347
373
405
430
436
369
283
263
267
273
279
282
286
289
294
302
304
307
293
303
442
326
327
329
336
348
369
401
436
457
441
349
286
284
288
289
294
297
305
309
309
324
324
322
326
303
345
451
339
338
342
350
361
379
410
445
467
454
362
298
293
294
299
295
298
307
304
309
310
313
278
372
392
317
314
315
322
333
351
383
408
424
394
299
245
239
239
241
247
250
250
262
260
260
262
268
128
519
307
278
284
291
299
318
347
380
408
423
372
278
249
253
261
266
277
282
290
296
303
307
311
277
391
410
335
337
340
350
363
387
422
459
481
451
353
304
304
308
312
316
320
321
330
333
336
341
346
259
546
407
360
361
365
372
385
409
444
477
491
450
351
314
311
313
317
317
319
324
322
329
341
330
330
328
250
481
387
326
324
323
331
342
355
387
413
430
401
306
250
245
244
246
249
254
259
269
273
278
279
282
208
458
343
302
303
311
321
335
361
395
427
441
409
313
272
270
279
282
291
298
296
304
315
312
315
318
243
531
377
326
325
328
337
350
371
404
439
463
433
325
276
278
277
279
281
284
287
318
305
300
304
308
151
534
313
311
316
323
335
354
382
418
444
441
353
275
265
264
264
268
270
275
273
288
289
279
279
280
138
575
308
282
284
288
296
308
330
361
390
403
369
268
230
230
233
236
244
253
259
261
273
285
278
283
288
204
464
365
307
312
322
331
349
373
405
434
452
435
348
294
295
300
303
310
318
321
326
333
333
335
331
258
469
352
340
345
348
358
373
397
428
440
435
357
279
266
268
275
279
284
282
288
288
293
297
301
236
440
382
316
319
325
336
351
373
407
437
455
431
337
286
288
294
299
306
311
315
322
330
330
338
340
219
587
388
352
351
352
360
373
395
426
454
465
417
316
279
277
278
279
282
286
288
292
302
296
298
302
160
499
332
317
318
323
335
355
383
419
443
446
374
291
277
281
288
295
298
307
307
319
320
324
328
334
198
600
382
349
351
360
365
382
405
440
470
482
437
340
303
303
305
306
311
312
313
312
314
316
312
314
281
338
406
310
302
302
306
315
326
353
384
395
381
287
219
212
210
215
216
220
223
222
233
236
240
238
247
84
490
286
265
271
280
293
311
342
382
412
424
368
280
258
265
272
279
288
296
304
311
316
322
344
334
336
346
294
466
440
364
368
376
388
397
422
448
483
504
492
403
339
333
336
340
349
346
347
352
346
371
372
366
369
370
223
623
402
374
372
380
387
399
424
454
481
492
445
349
313
309
312
316
320
324
323
329
348
326
331
333
294
396
437
346
343
344
355
363
384
418
457
482
460
358
292
281
282
286
298
289
291
296
304
321
308
316
304
242
440
371
307
304
309
317
324
351
369
406
418
382
306
212
213
212
215
217
214
217
212
237
222
219
218
217
124
377
238
231
236
246
257
281
311
347
375
372
296
213
205
212
222
228
239
246
249
282
275
277
284
289
140
505
327
312
318
332
341
361
393
429
457
461
384
298
278
282
289
293
298
300
316
334
321
324
328
270
448
402
341
344
352
362
374
398
435
467
491
460
365
315
314
315
317
322
328
327
356
349
345
348
355
205
568
385
367
371
375
387
407
430
461
484
489
428
340
315
317
320
322
326
326
343
347
335
339
338
218
570
375
346
346
352
361
375
400
436
466
476
425
325
290
292
295
298
298
301
322
321
314
318
324
177
582
356
324
327
330
340
353
379
415
448
451
391
296
264
262
269
268
271
271
281
292
287
287
288
258
351
380
304
304
306
315
328
347
374
407
426
407
315
255
251
252
260
264
270
270
289
295
287
288
287
185
532
336
300
303
308
318
331
352
385
426
437
385
291
251
262
262
271
269
281
286
301
304
299
305
309
183
539
335
329
335
342
353
371
403
444
473
471
371
288
280
284
286
295
300
305
311
311
340
327
327
328
331
186
575
351
343
346
354
362
381
409
447
472
481
404
312
295
297
299
302
311
313
314
319
339
341
333
338
338
194
615
367
341
344
350
361
371
397
437
462
479
429
330
289
291
293
298
299
305
306
308
334
323
321
322
325
159
595
350
331
334
340
348
365
394
431
459
466
394
298
275
278
279
280
286
290
291
294
297
300
298
322
311
306
309
311
142
583
331
319
319
326
333
350
380
416
446
455
398
298
269
267
272
274
281
286
290
298
300
300
308
312
315
315
320
321
324
321
327
337
334
336
338
200
626
372
345
344
350
359
373
393
419
448
464
460
385
307
291
293
296
299
305
308
311
315
314
313
322
327
323
325
327
195
598
369
333
335
342
349
364
382
420
455
475
441
336
283
280
285
283
287
297
296
301
305
310
308
308
328
322
321
326
290
388
438
330
328
333
339
349
366
395
434
457
450
367
277
261
259
258
256
256
255
255
255
253
250
251
249
251
251
252
162
439
310
247
248
249
259
272
291
326
365
386
376
283
209
205
212
215
224
232
240
248
252
263
273
278
284
283
230
460
318
313
323
334
346
367
402
444
476
480
401
313
302
308
310
317
323
330
335
339
349
354
354
358
365
206
653
398
373
377
382
393
407
433
471
503
518
465
361
326
327
328
330
334
338
342
346
348
345
370
356
356
358
352
271
548
370
362
363
370
379
394
422
458
485
489
417
323
299
300
301
304
308
311
314
317
320
321
325
329
333
228
557
383
336
336
341
347
362
384
415
450
470
445
345
282
281
282
287
290
293
297
298
303
307
312
314
317
290
350
425
331
326
329
338
349
368
397
434
457
455
372
288
276
278
281
287
291
297
298
298
308
310
313
316
319
256
472
396
329
328
334
343
352
375
407
444
464
453
358
287
280
283
286
291
295
300
303
306
314
311
318
322
324
234
533
384
332
333
337
346
357
378
411
448
466
450
351
286
284
286
288
292
297
301
305
308
308
316
326
322
324
325
246
507
395
331
331
336
342
352
374
404
437
461
450
360
285
275
273
275
277
280
282
280
289
287
283
288
289
162
519
326
285
283
287
297
306
332
362
395
413
381
276
228
226
229
235
240
247
251
256
259
269
275
273
279
262
308
406
305
303
309
319
332
352
384
425
449
451
376
292
277
282
286
292
299
304
311
315
324
328
329
335
339
182
641
374
351
354
360
371
386
411
447
479
494
456
352
308
311
312
315
319
321
326
328
337
341
338
342
346
177
646
370
347
347
353
362
375
400
435
462
479
430
326
289
290
292
295
296
300
301
303
314
319
318
322
324
162
592
350
329
327
337
345
359
387
423
449
464
417
317
279
279
283
287
293
299
303
312
314
317
318
323
251
474
393
333
334
343
353
364
383
412
446
467
451
359
290
287
290
294
297
302
303
314
311
317
320
322
239
518
383
332
334
338
346
358
383
411
448
468
448
344
286
288
286
288
292
297
302
307
312
312
316
305
280
464
330
326
333
339
352
371
400
434
460
455
369
291
282
284
286
289
295
295
303
311
311
313
312
210
509
329
323
326
329
337
355
380
414
439
435
356
272
259
259
259
262
263
264
276
279
276
283
285
123
538
314
293
298
301
311
331
360
390
419
430
380
283
253
255
258
266
271
274
283
289
283
287
291
132
542
319
298
298
305
313
330
356
393
416
427
372
277
252
255
261
269
273
276
289
295
295
299
304
167
595
350
324
329
336
347
361
387
423
454
470
429
329
296
299
304
307
311
318
320
330
331
335
339
344
216
617
391
355
356
362
370
383
405
441
471
487
456
354
307
310
310
312
317
320
323
327
328
334
334
338
318
347
464
352
347
349
355
368
385
415
445
464
464
380
300
291
291
298
302
305
306
314
313
320
323
324
223
531
375
337
336
346
354
368
388
417
448
461
435
342
287
286
289
290
291
293
296
299
301
294
297
277
275
423
300
294
292
299
307
321
348
382
401
394
310
229
221
220
227
230
231
239
243
248
247
252
233
263
381
270
269
274
283
297
323
353
393
421
412
322
250
251
253
261
268
275
279
296
304
304
313
319
154
622
356
336
340
347
359
377
406
440
474
489
428
332
305
310
312
318
320
324
330
330
339
338
343
292
446
428
346
343
347
352
364
380
413
446
464
442
344
282
281
282
283
287
291
296
300
299
299
325
311
313
317
315
212
517
337
327
332
341
353
371
398
432
457
463
407
317
288
292
297
301
308
313
315
322
329
330
330
336
228
561
386
349
348
354
362
377
402
435
467
484
451
347
297
295
301
304
307
312
316
316
330
336
330
333
337
166
628
362
342
347
350
359
373
399
434
462
472
414
312
278
279
279
279
280
282
284
285
281
285
298
285
283
283
200
456
351
281
280
282
286
297
316
350
384
402
389
295
224
223
226
231
239
242
250
255
256
284
279
279
287
287
147
509
322
315
320
330
342
363
391
432
460
469
406
317
295
297
302
311
316
323
328
328
348
350
343
345
350
193
618
377
351
354
359
367
383
403
439
467
480
435
333
289
288
292
292
297
301
303
301
329
319
317
320
320
150
575
342
329
334
340
349
365
395
432
464
473
406
309
287
288
292
296
301
308
310
313
312
338
329
334
332
334
162
604
358
341
345
352
359
377
404
439
467
480
423
327
291
296
299
304
305
312
317
313
315
339
329
331
327
328
192
530
352
338
343
349
361
376
403
438
465
475
414
317
288
285
290
299
302
306
304
327
324
312
319
320
150
607
348
327
335
338
349
369
394
428
463
480
414
312
277
281
282
288
284
285
287
314
302
298
297
303
122
576
319
303
307
311
323
339
368
402
436
448
376
279
251
254
256
266
258
269
274
299
288
288
293
290
203
467
316
313
315
328
336
355
389
425
454
460
384
298
279
286
292
299
309
306
326
340
326
330
339
264
506
401
355
359
362
369
381
400
433
461
480
461
359
302
302
304
310
312
314
316
335
339
328
330
334
193
614
376
342
342
350
359
374
400
433
472
488
441
335
292
300
300
301
305
307
317
325
316
317
318
231
511
387
332
329
334
347
358
376
404
443
453
429
320
271
266
263
261
263
260
276
274
267
271
268
98
484
273
253
253
270
268
288
311
343
363
363
292
197
179
181
184
190
186
203
208
211
211
213
85
417
243
245
243
253
269
292
325
364
389
395
322
245
239
246
256
261
275
294
293
299
308
256
431
401
334
338
347
359
374
398
430
464
485
464
368
320
323
325
326
330
354
352
351
355
354
211
563
375
363
364
371
380
398
424
453
472
475
403
322
307
315
314
312
327
332
329
334
337
204
573
376
352
352
358
366
382
404
434
454
460
417
328
299
302
308
313
314
321
328
325
328
315
307
454
348
346
344
355
366
388
414
445
462
454
367
301
295
300
303
304
313
318
318
322
326
193
593
371
341
341
343
352
368
394
429
450
463
412
319
294
295
298
304
303
311
311
322
323
327
265
458
405
338
337
343
351
362
384
414
443
457
437
344
294
293
295
297
296
301
310
318
319
322
314
279
449
342
336
337
347
357
376
405
433
446
447
365
296
286
289
295
301
303
312
318
313
315
318
164
543
344
331
332
339
349
367
395
426
447
449
383
302
288
291
294
296
298
303
308
315
317
323
279
407
420
333
331
335
344
354
376
407
438
454
432
336
283
282
283
285
287
290
299
299
304
307
311
160
580
348
321
322
328
336
349
377
408
434
447
392
299
268
270
273
276
278
281
289
298
293
298
293
227
434
317
309
309
319
327
348
372
399
419
412
337
262
251
250
256
259
264
271
274
277
279
283
204
458
350
302
305
310
322
337
364
393
425
442
409
314
273
273
281
286
293
293
309
316
312
316
320
154
570
349
336
340
348
361
377
407
444
470
473
389
306
295
300
303
304
313
318
319
332
327
331
334
267
482
415
345
344
350
358
369
390
425
458
475
449
349
297
293
296
297
304
306
311
314
314
330
331
325
329
334
154
621
363
339
337
350
357
371
396
435
459
470
422
325
292
289
294
295
301
309
310
322
331
324
327
330
171
574
363
340
342
351
360
374
402
434
462
468
408
316
287
288
292
295
302
303
303
317
324
317
318
321
165
595
354
330
331
337
348
361
389
421
452
463
412
313
279
282
285
287
293
296
296
320
316
312
314
318
138
588
344
326
332
336
347
368
393
434
460
464
393
298
279
286
286
290
297
302
304
313
328
316
320
322
217
544
377
330
331
339
345
365
378
419
445
459
429
326
273
272
273
276
276
277
279
299
282
281
283
242
333
375
286
280
283
290
297
316
348
376
392
373
280
214
210
213
216
220
222
246
247
241
243
249
89
479
285
265
272
281
293
314
340
378
408
417
350
261
246
251
259
265
268
277
298
294
297
304
253
417
397
327
330
343
350
365
393
428
462
483
456
355
305
307
308
313
314
317
321
325
333
333
336
288
423
432
344
341
342
347
356
376
407
441
457
429
328
273
272
271
276
277
283
283
289
301
296
302
297
230
462
329
320
326
337
350
368
401
436
457
456
377
306
291
297
302
312
315
321
329
332
334
335
340
183
602
374
351
353
357
367
383
405
440
469
475
415
319
293
296
299
305
309
307
322
324
321
325
330
160
602
361
340
344
347
359
378
410
446
471
477
405
313
295
296
300
303
308
311
321
322
327
330
333
198
592
378
342
343
348
357
371
395
433
462
477
423
327
289
294
299
303
305
312
313
311
323
327
327
331
333
154
604
365
340
343
350
358
373
399
437
461
470
410
316
288
290
294
294
300
304
305
320
323
323
325
325
249
468
347
339
339
350
357
373
403
435
455
449
368
288
275
276
281
282
283
286
292
304
294
295
298
207
481
350
305
306
313
322
333
360
391
425
440
408
309
261
260
264
269
274
278
280
308
300
298
302
305
151
532
331
317
324
332
344
363
392
430
453
455
372
289
276
279
277
279
284
283
281
310
296
293
293
290
173
485
310
299
302
307
319
337
368
400
428
428
344
262
247
250
251
255
263
268
284
292
282
289
291
161
526
340
308
312
319
336
352
379
411
443
454
408
320
282
283
289
296
300
303
313
334
319
323
328
255
474
395
343
345
350
360
375
398
433
468
484
452
353
303
304
308
309
313
313
322
347
329
332
336
310
360
455
349
348
354
360
374
393
429
465
485
465
365
304
302
303
308
309
314
316
324
342
330
332
337
277
455
422
343
344
346
356
370
388
423
456
473
447
348
291
289
294
294
300
303
307
305
330
320
319
322
322
173
532
352
338
340
347
357
374
398
434
453
457
390
300
275
274
274
277
278
277
287
296
281
280
277
196
430
336
280
279
284
290
303
323
355
384
404
370
269
217
212
229
233
237
235
244
263
250
258
261
207
387
356
282
284
296
304
324
354
390
427
448
424
318
271
275
281
287
298
307
311
340
344
343
353
364
188
638
384
376
373
378
384
401
427
461
488
489
415
332
316
316
320
323
325
330
329
349
346
344
348
342
294
495
365
359
359
367
377
397
426
458
479
470
391
315
305
307
314
322
329
334
334
356
356
352
358
348
321
548
370
367
371
379
391
412
448
485
509
490
386
302
295
291
294
295
298
299
300
317
302
305
305
259
397
400
310
307
308
319
333
355
391
426
446
424
322
262
260
264
269
273
279
286
285
302
310
304
309
311
167
631
352
321
321
327
335
351
374
409
442
455
410
312
271
270
276
276
285
290
290
304
317
304
306
309
221
499
367
321
323
328
337
353
376
409
444
457
431
338
285
283
286
289
297
302
303
310
337
316
316
319
264
444
381
326
324
327
335
344
365
397
423
442
420
324
259
255
256
258
261
263
263
284
285
275
278
281
121
576
309
288
291
299
310
328
355
393
421
430
367
276
254
257
261
267
275
281
282
302
311
302
308
311
185
592
355
325
329
334
344
358
383
419
448
460
418
321
282
282
285
287
292
296
302
301
318
319
313
318
317
182
602
358
327
326
334
344
357
383
418
451
463
427
330
287
291
291
302
305
307
312
313
343
331
333
338
332
257
506
359
350
354
368
377
395
424
458
478
472
397
311
292
293
303
304
306
314
320
339
323
320
323
269
450
406
335
338
341
352
362
383
418
451
469
440
339
276
272
273
273
278
280
277
296
301
282
290
295
131
624
320
297
301
305
316
332
359
391
423
438
386
282
254
258
258
264
270
276
284
310
293
297
300
273
360
433
315
316
324
330
345
367
400
437
460
450
353
286
284
287
289
295
298
308
329
317
313
325
265
527
423
332
333
340
349
363
385
417
449
473
457
356
304
302
337
285
294
306
332
334
323
329
333
165
662
352
341
345
345
355
370
394
427
453
461
420
307
283
294
307
302
309
286
311
310
316
318
328
340
278
451
410
332
337
335
360
371
399
436
455
478
486
415
268
297
306
305
313
322
322
301
314
314
337
234
479
396
340
347
340
356
372
394
423
467
442
412
350
281
303
306
285
309
313
324
318
303
339
332
272
438
392
322
341
338
351
367
369
419
442
445
409
324
273
267
286
308
295
278
288
292
270
294
290
311
136
567
323
303
319
308
329
310
359
395
408
415
349
250
254
240
268
270
239
273
279
275
278
282
296
213
430
370
302
312
307
310
345
363
387
427
434
427
348
278
287
282
283
287
289
284
294
288
296
294
294
254
328
394
305
302
303
304
312
319
335
360
362
340
268
204
195
197
193
200
200
208
212
233
221
230
236
125
431
272
277
283
298
316
341
373
407
429
438
372
305
295
305
308
317
321
325
332
334
328
332
335
272
463
403
342
345
354
362
379
397
433
457
473
454
366
315
317
321
325
335
332
337
345
349
339
363
364
219
592
384
376
373
378
387
405
424
455
474
481
414
336
316
318
323
323
326
329
328
338
340
337
335
333
204
511
345
327
325
329
336
347
367
393
399
399
340
247
230
227
233
231
233
227
227
225
236
232
233
212
241
362
245
250
257
264
272
298
330
362
379
376
298
231
228
237
243
253
260
266
278
287
296
303
310
164
553
353
336
340
349
360
378
406
440
459
469
419
337
315
321
324
334
339
343
344
351
360
353
365
320
424
447
380
366
380
381
397
415
435
466
479
471
392
327
326
323
336
332
339
336
347
354
346
349
359
185
636
372
370
370
360
383
400
422
453
470
479
399
310
289
298
289
304
293
299
304
309
303
304
303
178
519
314
308
311
315
326
347
374
402
420
415
337
257
253
253
256
261
264
276
283
281
288
290
147
543
335
310
316
323
337
355
378
410
430
438
398
315
285
293
299
304
308
316
320
320
324
329
221
548
383
344
345
352
362
377
403
434
459
465
433
337
302
304
310
313
313
320
328
332
332
335
286
420
431
342
342
346
353
366
387
417
446
458
437
343
295
291
294
299
301
300
311
319
314
314
319
166
612
361
329
337
340
351
364
389
419
443
449
403
302
277
282
285
290
290
297
311
309
312
317
234
453
395
325
332
340
347
361
388
419
453
449
426
336
288
290
289
293
291
295
314
311
313
320
277
371
420
332
335
337
345
358
382
406
431
443
426
340
287
284
289
296
297
308
318
311
313
312
204
505
358
315
315
321
328
336
359
387
400
409
367
269
228
227
229
229
224
232
237
220
222
219
126
392
277
215
215
219
229
244
271
300
325
337
303
210
178
184
192
198
205
211
235
239
243
253
260
123
488
297
294
305
318
333
361
397
432
454
451
372
301
300
308
312
323
330
333
352
361
362
364
361
266
569
383
383
386
390
402
427
454
485
499
494
419
344
337
338
341
345
348
356
370
365
366
368
244
582
411
373
375
383
393
410
438
464
483
492
450
352
315
316
320
320
316
312
322
321
313
311
304
200
486
312
301
303
303
313
327
352
378
391
379
288
211
200
202
207
209
206
219
229
223
226
231
94
512
286
249
255
264
277
297
326
364
395
408
359
264
242
251
255
264
271
279
303
302
305
314
299
294
476
343
343
348
358
372
395
429
462
479
462
369
313
314
314
321
324
325
343
348
343
351
345
286
501
371
369
373
382
395
417
446
477
490
479
392
327
321
327
333
338
337
352
354
349
349
352
189
631
381
358
361
369
378
395
423
456
475
480
408
318
297
298
303
305
304
320
328
319
322
324
208
551
375
330
333
340
346
362
389
425
454
464
406
304
277
276
280
283
289
290
292
316
308
308
312
294
303
456
325
325
327
335
350
370
402
434
454
435
337
275
274
277
281
284
289
295
292
317
310
309
313
311
155
552
330
323
325
330
343
354
383
412
435
424
339
253
240
241
240
240
243
244
235
253
249
239
240
240
56
484
265
242
248
253
260
280
307
344
371
377
307
214
197
200
207
215
223
231
232
253
259
261
266
271
128
489
310
301
311
319
336
361
398
438
464
464
378
299
291
297
305
312
320
327
332
334
362
352
354
359
340
351
539
379
380
385
394
408
429
467
503
525
509
409
336
334
336
339
341
345
350
351
355
371
356
362
360
285
500
435
366
369
373
381
392
415
449
480
491
460
364
306
301
305
310
314
320
326
322
332
344
334
339
340
222
568
391
347
345
351
359
375
401
435
461
477
435
331
282
280
281
288
291
293
294
302
323
306
310
314
262
409
407
323
324
328
336
351
375
409
444
464
435
330
275
272
274
278
280
287
290
288
311
312
306
309
315
130
630
346
327
331
336
348
362
397
430
464
474
405
308
282
287
284
292
295
302
305
304
322
323
319
321
322
156
592
356
334
336
341
354
368
396
431
458
467
411
312
279
281
285
289
291
295
299
300
322
318
312
318
319
149
572
350
331
333
341
353
368
398
433
461
467
402
306
283
288
291
295
299
301
302
314
324
313
316
319
199
560
372
331
335
340
351
362
384
429
459
472
426
321
279
280
280
282
286
292
295
293
302
321
309
313
313
232
474
387
320
313
336
337
354
380
414
447
464
441
340
284
283
285
291
292
296
298
299
323
316
313
318
320
148
575
341
328
334
335
349
361
397
428
453
458
379
286
265
268
269
270
271
271
289
288
282
285
285
121
549
317
290
295
300
307
327
354
386
414
422
359
265
238
239
244
249
250
253
281
268
268
269
265
174
423
288
280
281
290
299
318
349
380
399
395
309
231
221
223
229
232
234
246
257
251
256
260
150
496
322
280
285
295
307
324
353
395
428
446
398
299
270
274
279
285
291
294
313
326
325
330
337
156
604
366
355
360
371
380
400
433
470
496
498
417
336
322
324
328
329
336
337
345
356
353
357
358
215
569
381
369
372
377
388
410
439
471
491
492
406
330
313
316
319
326
325
334
333
341
346
341
245
541
389
362
365
377
381
420
419
465
496
505
479
382
354
353
360
364
377
371
374
371
379
373
246
640
378
362
370
374
373
380
414
437
459
461
405
320
298
299
298
300
305
313
318
306
299
296
261
440
331
304
302
307
310
325
340
374
404
421
389
292
253
248
250
257
262
260
284
283
276
280
279
92
607
297
289
293
303
312
335
363
401
425
429
353
266
256
257
263
263
276
289
283
282
287
250
376
375
301
299
310
323
340
364
402
432
448
424
326
284
284
287
287
304
314
306
306
310
247
471
359
315
318
319
323
333
354
376
402
406
362
269
233
231
232
225
242
244
231
231
231
98
495
252
230
234
239
248
263
289
319
338
345
282
206
196
202
209
208
240
242
240
247
255
107
498
293
287
295
307
321
344
375
408
427
425
349
289
283
293
301
303
323
332
328
338
344
215
598
391
363
364
373
386
399
427
456
477
479
430
352
332
340
339
340
341
354
363
361
361
367
297
517
429
386
384
390
395
408
426
452
476
483
452
362
325
324
326
331
334
336
344
344
347
347
350
218
580
383
352
352
357
366
378
401
429
444
451
404
315
284
287
290
294
296
295
302
309
308
311
295
297
434
329
327
330
338
349
370
400
430
444
426
333
276
276
279
283
288
292
297
301
297
320
314
314
317
314
214
508
338
331
335
344
353
372
401
432
449
449
375
296
286
289
293
297
302
308
311
314
313
323
329
324
327
328
181
612
364
333
335
341
351
363
385
414
437
447
409
318
278
279
282
286
290
294
297
300
301
298
323
312
313
317
296
330
445
331
329
335
342
352
372
400
430
448
442
360
291
285
290
294
298
304
306
309
308
316
322
324
328
311
315
461
343
340
344
351
362
382
411
441
456
446
361
297
293
296
299
302
309
309
315
314
317
317
319
324
329
224
524
384
335
338
345
352
363
385
411
436
443
418
325
277
274
277
286
288
293
292
292
299
302
303
304
308
161
567
342
316
325
329
341
356
384
414
438
444
390
295
267
269
273
279
282
288
289
294
312
304
305
311
231
482
375
325
329
335
344
361
384
419
451
468
432
330
285
287
289
294
297
302
304
324
327
318
321
325
160
624
356
335
339
345
355
370
398
437
463
470
400
307
288
291
293
298
302
303
305
326
320
320
325
318
244
492
341
337
341
349
359
378
408
443
463
454
361
291
287
291
292
296
302
306
305
320
323
321
323
322
189
531
343
336
339
345
355
374
404
436
457
455
370
293
285
289
290
295
296
296
312
315
311
313
316
155
541
339
326
329
335
345
363
393
425
445
443
361
284
274
277
279
282
280
280
299
293
292
295
287
204
452
304
297
299
308
316
332
360
391
410
397
307
242
238
241
244
250
254
259
259
260
283
277
279
286
282
198
457
309
302
310
318
332
355
383
414
433
436
364
288
277
284
288
293
302
303
309
318
324
328
332
331
228
522
362
352
355
363
374
400
427
459
480
474
389
313
299
304
304
312
318
319
320
328
328
335
335
339
267
495
401
348
348
356
365
375
398
434
461
476
447
349
300
301
300
307
310
313
313
324
325
327
329
332
213
575
371
342
343
350
356
372
397
430
461
471
413
317
289
291
290
294
300
301
306
315
312
314
318
320
232
520
370
328
330
335
342
355
382
416
450
464
418
319
282
281
282
287
292
297
301
300
313
323
316
324
327
171
636
363
330
338
340
352
368
394
434
466
472
406
307
279
283
285
290
296
298
292
317
316
313
316
319
129
633
347
329
333
341
349
365
393
429
455
461
383
296
282
288
290
293
296
301
303
309
309
314
320
324
220
540
381
333
333
339
348
361
387
420
450
464
415
318
281
284
286
291
294
298
301
308
312
313
320
323
164
604
358
333
337
343
350
365
391
425
451
459
394
302
281
285
289
292
295
299
305
309
308
316
321
326
279
407
419
334
334
338
345
358
381
415
442
462
433
339
284
281
287
289
295
299
303
308
308
316
318
321
279
393
411
335
336
338
346
358
382
414
447
464
436
341
281
280
284
285
294
297
301
303
310
316
313
317
317
194
508
340
329
331
340
351
370
399
433
459
458
367
289
279
284
287
291
296
302
301
314
320
315
320
324
155
621
355
334
338
344
354
369
397
435
464
473
403
310
290
293
294
296
300
306
310
315
315
318
340
329
330
333
306
363
464
344
342
346
354
362
382
414
447
467
457
366
294
288
293
296
299
301
306
310
309
314
326
322
325
326
248
501
397
333
336
341
349
363
383
416
446
465
435
335
283
284
287
287
294
300
304
306
308
306
320
322
319
321
323
168
618
359
328
331
335
345
360
383
417
444
458
416
318
282
285
288
290
295
303
302
311
308
314
316
322
250
460
399
332
334
338
346
358
382
417
447
464
429
331
285
283
289
292
296
306
306
311
312
320
324
328
293
364
426
342
337
343
347
362
384
414
445
466
449
355
285
283
283
284
288
290
293
295
298
303
302
308
221
477
368
321
318
323
332
342
371
403
439
455
413
313
271
271
275
279
284
287
289
294
305
302
310
296
296
438
323
324
328
337
346
368
404
439
459
441
350
282
285
282
284
289
286
289
298
301
305
308
192
532
357
314
314
317
327
333
356
390
417
426
373
284
255
254
260
269
271
283
274
279
285
290
246
376
385
316
317
321
335
345
370
403
433
453
424
329
284
284
287
293
294
295
312
319
308
313
315
159
551
343
327
331
340
347
367
396
433
456
456
373
299
289
294
296
302
302
312
322
319
324
329
177
613
363
340
343
346
355
369
397
433
457
465
391
305
290
292
292
297
298
300
309
318
316
320
313
255
479
335
332
334
342
354
372
402
434
453
439
350
287
286
287
290
293
294
305
311
312
316
322
165
596
355
331
331
339
349
363
386
423
445
452
387
304
285
286
292
296
300
306
306
315
316
319
268
421
401
334
336
340
350
361
382
411
439
449
422
332
288
287
294
297
300
304
311
308
309
315
284
349
409
326
326
327
334
345
366
394
422
437
411
317
267
269
270
274
279
285
296
292
288
293
260
345
388
304
304
307
316
326
348
381
410
432
399
299
255
256
262
263
264
282
288
284
287
290
195
508
341
306
310
316
327
342
369
406
435
449
389
296
273
278
282
284
284
309
310
308
313
317
152
583
351
334
339
344
357
374
406
440
463
462
377
304
296
299
302
305
308
311
336
327
328
329
324
241
498
346
341
347
353
365
384
414
446
463
451
363
300
297
299
301
304
309
312
309
332
328
326
329
333
159
616
359
340
343
347
355
373
398
428
451
458
395
310
289
291
293
298
301
301
304
324
320
320
323
304
309
448
337
333
339
345
357
378
406
437
453
437
344
289
288
293
292
298
299
301
325
317
316
318
323
156
553
347
333
337
342
353
373
395
427
448
446
370
295
285
284
289
292
296
294
311
317
305
309
313
187
522
357
321
322
326
334
348
374
406
430
441
390
301
272
272
277
281
284
286
289
319
303
303
304
301
233
464
325
318
321
330
342
359
390
425
442
437
349
281
279
281
286
292
292
305
322
307
312
314
256
431
394
332
331
338
344
359
381
414
446
461
419
326
286
289
293
296
299
298
325
327
318
320
324
172
591
362
334
334
342
355
368
395
430
454
461
389
302
284
288
293
297
297
298
326
314
314
317
316
184
520
338
333
336
344
355
377
402
438
457
449
358
290
288
290
296
297
298
300
327
323
322
319
326
151
574
352
333
337
342
354
371
398
434
456
458
382
299
287
291
291
297
300
299
320
320
316
317
320
158
580
356
332
332
340
345
366
392
430
451
455
388
304
283
289
290
293
297
299
299
327
315
316
318
317
199
511
339
328
332
340
353
370
402
432
456
448
362
290
283
287
292
294
296
296
320
318
311
313
319
157
596
352
328
328
339
345
364
387
424
449
458
385
300
284
282
288
295
298
304
303
314
326
317
321
322
220
530
380
330
336
341
350
364
388
419
451
462
422
328
289
291
295
297
299
303
313
333
316
321
321
266
424
401
331
335
341
351
364
387
419
448
464
430
339
291
292
293
294
301
302
308
335
315
320
320
301
327
438
332
329
333
342
356
374
407
442
458
438
342
276
278
277
284
286
289
299
319
307
307
312
297
237
478
321
317
318
328
341
361
390
423
445
428
325
266
264
277
269
265
277
305
293
286
297
293
132
524
317
310
307
321
334
352
377
419
444
437
342
271
267
269
273
275
275
305
300
300
300
316
116
591
335
315
324
333
345
365
396
432
457
457
368
294
288
292
298
299
302
308
316
310
325
327
332
321
286
486
350
348
352
357
370
393
418
450
467
456
366
297
291
296
300
305
308
313
322
324
325
327
329
167
577
360
340
343
348
361
377
406
441
465
464
382
299
287
289
292
296
300
302
308
307
315
316
320
248
477
392
329
332
334
342
357
381
416
447
462
417
318
282
284
287
290
293
300
302
309
308
315
319
324
216
542
377
331
333
337
346
359
381
417
451
463
412
313
282
284
285
288
291
297
303
307
307
306
329
324
324
325
307
301
476
338
333
337
343
356
377
406
438
460
452
367
293
284
287
292
295
300
304
307
310
320
319
322
310
297
453
339
337
339
346
358
378
408
442
461
442
348
287
282
284
288
293
301
305
309
309
319
318
320
326
329
184
588
372
336
340
346
353
368
390
421
449
463
415
320
285
287
290
294
301
301
305
308
314
311
319
322
325
239
498
391
332
334
336
343
355
378
412
442
460
423
325
279
283
285
287
291
294
299
305
306
311
314
316
318
322
170
617
361
331
333
337
345
359
382
416
446
460
410
314
283
285
288
290
292
299
302
305
307
312
311
317
321
326
233
519
388
335
335
341
347
364
383
413
446
458
433
338
287
282
286
293
298
301
306
306
317
319
316
322
323
170
542
357
335
337
347
354
368
397
429
452
456
390
300
279
286
284
289
293
299
297
301
315
305
314
316
284
357
418
332
323
334
341
354
372
403
434
454
435
338
275
273
274
281
283
286
291
289
316
309
308
309
303
231
481
328
323
328
336
348
367
399
437
460
450
357
289
281
285
288
293
303
297
312
321
315
318
321
218
528
376
334
335
340
346
363
387
420
456
467
421
321
287
288
291
296
295
298
316
323
317
314
320
192
571
362
329
334
339
348
364
387
423
449
463
411
312
285
289
291
294
295
305
320
311
314
319
269
411
408
329
330
336
343
355
376
408
439
453
422
324
282
288
289
290
296
297
301
303
309
311
313
245
455
393
326
326
329
336
349
370
401
428
445
414
320
274
276
278
281
288
291
293
301
306
307
310
311
187
492
339
326
330
337
349
368
395
423
443
444
372
291
278
281
286
290
294
293
306
306
310
311
312
155
586
347
321
323
329
337
355
382
416
439
447
387
294
275
279
280
285
289
292
293
301
310
311
312
307
243
483
332
326
329
337
347
365
398
430
449
442
355
287
282
285
290
293
298
302
306
305
313
324
320
321
324
228
532
385
331
331
337
347
359
381
414
443
461
432
336
287
288
291
292
297
304
304
312
307
312
316
322
244
471
392
326
328
330
338
348
372
400
430
448
406
313
266
263
265
269
273
276
284
281
291
294
292
298
299
142
555
336
308
313
319
330
346
373
404
431
439
388
292
263
265
271
278
283
289
292
295
298
308
308
315
288
340
439
329
331
335
342
357
379
412
449
464
451
356
292
293
291
297
298
304
310
312
316
314
328
332
326
333
334
161
646
363
338
340
345
355
372
397
431
458
472
422
327
287
290
293
296
301
308
309
312
314
321
322
325
299
345
448
341
343
350
353
368
390
425
457
475
462
368
296
294
298
297
300
305
311
315
319
319
319
320
324
164
603
354
327
330
337
343
359
383
419
450
458
400
302
274
278
279
284
288
293
296
304
306
308
309
314
186
579
359
323
327
332
342
355
380
418
452
468
415
314
281
283
285
288
292
296
302
303
310
317
315
321
318
171
555
342
331
333
339
350
365
393
428
453
452
372
289
278
282
283
286
290
294
298
306
313
312
315
319
138
584
344
328
332
338
347
363
390
427
450
454
382
294
282
284
286
287
294
300
301
309
307
317
321
323
220
513
383
333
335
339
350
362
388
419
448
463
430
332
288
287
290
296
301
307
305
316
315
318
322
324
221
523
384
336
337
344
351
365
387
420
450
462
423
325
285
284
290
294
297
302
303
304
311
317
315
320
322
158
573
349
330
332
340
351
369
395
431
456
461
392
301
282
286
289
293
296
302
305
311
312
315
307
331
327
322
325
323
129
628
346
327
329
335
345
363
386
418
446
454
406
308
268
271
276
280
281
288
292
293
299
300
302
306
312
156
592
352
315
320
324
334
349
373
411
441
453
400
301
267
270
274
279
283
288
291
295
297
300
298
308
317
311
315
318
180
589
363
324
327
333
342
358
378
412
443
458
438
341
284
284
287
294
298
301
303
303
313
318
316
320
321
119
629
339
329
332
337
348
356
379
418
443
448
372
279
265
264
264
267
269
270
269
269
277
275
276
278
133
463
300
282
285
287
301
315
341
372
395
400
330
241
226
229
235
240
245
250
257
267
271
274
281
156
461
310
302
304
313
324
346
376
410
432
432
360
284
273
279
284
291
297
306
309
317
321
324
274
423
421
343
343
348
359
373
394
424
459
479
456
351
296
297
296
301
303
304
304
306
311
310
311
279
358
422
317
314
315
319
330
350
378
409
426
413
312
251
252
254
256
257
260
272
280
278
282
287
101
597
315
300
302
312
324
342
370
406
429
441
377
289
271
273
277
283
287
295
306
310
311
292
333
412
337
333
338
345
355
376
406
431
447
429
344
285
281
283
285
289
291
291
298
297
299
279
275
415
311
306
309
315
328
349
372
403
418
407
321
258
256
258
266
269
273
284
289
290
295
300
146
532
337
316
319
327
338
354
383
417
440
447
384
303
282
285
290
298
299
312
319
317
319
329
181
556
362
335
340
345
354
371
396
427
452
455
391
306
285
289
291
298
294
309
314
310
315
319
170
539
351
332
332
339
346
369
394
428
451
451
380
300
287
288
291
292
294
315
319
313
314
319
153
570
348
328
333
337
346
364
390
424
448
452
375
290
274
278
279
284
284
292
294
302
299
307
235
457
377
319
318
326
333
346
371
403
433
449
410
314
278
279
282
287
289
295
299
308
315
315
321
323
161
561
352
334
337
341
353
364
394
426
446
449
379
295
273
273
272
274
276
275
279
275
277
279
280
161
495
323
278
279
282
289
301
323
357
386
398
354
251
215
222
226
229
232
238
246
251
253
270
273
270
274
279
74
634
309
301
306
314
328
346
370
405
433
448
398
301
274
279
284
287
294
297
306
314
317
322
324
194
597
368
339
342
346
352
366
389
424
454
468
422
320
286
291
294
292
293
294
297
295
317
305
301
304
297
205
462
315
316
313
325
336
346
374
406
419
427
360
286
270
275
277
283
287
298
306
301
312
319
199
466
350
335
341
349
364
378
406
431
448
451
386
317
304
308
317
325
327
337
341
341
340
346
225
565
384
353
359
362
370
387
409
437
458
470
424
333
301
306
300
310
307
311
320
324
324
327
282
411
406
343
339
342
351
364
384
414
442
457
430
340
294
292
295
297
300
309
316
316
319
323
225
521
373
335
338
337
345
360
385
418
446
456
408
320
289
291
290
296
298
313
322
312
317
320
191
558
360
332
333
340
348
365
388
423
446
448
387
299
279
284
285
291
289
302
310
301
306
309
211
514
358
315
318
322
332
348
372
406
435
448
399
300
277
273
276
281
286
288
292
297
314
305
309
313
271
412
404
328
329
330
337
350
369
402
432
453
432
345
285
285
284
289
291
298
299
308
316
320
321
324
264
451
379
336
340
344
348
362
382
413
443
458
427
338
290
289
290
294
300
301
301
316
315
311
316
320
155
620
343
321
324
333
339
354
381
416
448
457
387
294
280
284
284
286
289
294
300
304
330
317
317
321
278
425
415
329
328
334
343
355
372
405
439
463
444
340
287
288
289
291
293
299
305
308
308
334
320
318
323
311
284
522
331
330
335
341
352
367
395
429
453
452
361
286
279
279
281
282
286
291
295
298
294
321
310
306
307
284
308
443
317
314
315
320
328
347
376
408
423
416
336
256
246
248
247
249
253
257
257
254
269
266
263
266
260
173
404
285
272
277
285
298
318
344
371
390
393
334
254
236
240
247
254
257
260
264
279
288
283
288
292
140
534
333
307
312
314
327
342
367
400
423
434
378
287
261
262
267
271
279
283
283
285
308
298
300
306
270
364
411
322
323
331
339
351
371
403
437
457
443
350
290
289
292
296
301
306
311
310
326
330
325
330
332
161
596
360
341
345
349
357
371
399
435
463
466
398
309
286
293
297
294
298
302
305
305
308
311
311
315
315
160
569
350
321
323
327
336
352
377
410
436
448
396
302
276
279
278
285
289
293
299
302
309
312
313
321
302
325
428
343
338
337
345
354
370
397
428
444
431
346
273
262
265
264
269
270
271
273
281
286
280
286
282
214
445
306
299
304
310
321
340
372
408
431
428
341
269
263
267
272
277
282
290
294
305
306
311
318
324
192
585
368
337
342
346
357
373
398
436
464
479
428
331
301
304
306
313
313
318
326
327
329
328
355
343
341
345
339
274
520
363
353
358
361
372
388
413
450
475
477
403
321
299
301
302
305
307
316
314
330
333
334
338
340
194
602
371
344
350
354
362
375
399
437
464
468
411
322
293
295
296
303
306
308
311
312
323
325
319
320
323
165
579
350
330
332
334
344
359
387
421
448
454
387
299
273
279
277
282
287
290
293
298
302
308
309
314
292
328
441
330
324
329
336
346
368
399
436
463
448
353
285
283
287
289
292
295
300
303
306
308
308
317
326
319
323
322
230
527
377
322
322
327
330
340
356
387
414
430
408
313
245
237
238
236
237
235
234
236
233
229
230
243
233
235
234
193
315
327
241
242
245
249
263
285
321
353
375
366
278
211
199
206
209
214
225
233
242
251
259
262
274
238
346
372
305
309
318
331
337
363
403
439
466
451
354
294
301
298
309
314
324
330
330
342
345
345
358
361
207
650
394
371
373
380
392
406
432
474
502
518
453
357
326
331
333
336
339
344
344
351
349
355
356
362
287
517
433
368
363
368
373
385
408
443
478
500
464
362
302
305
307
309
312
316
314
319
316
325
329
332
233
553
393
337
337
340
352
364
384
419
454
468
429
322
275
278
281
284
284
290
289
300
305
305
305
307
137
561
330
310
310
319
327
339
367
400
419
420
344
253
227
224
223
223
223
222
228
222
222
221
220
87
458
258
217
217
223
231
241
270
305
332
346
308
204
171
174
182
190
196
203
209
224
234
235
247
253
118
485
292
288
293
307
320
343
380
419
448
453
381
300
286
294
299
309
313
320
325
329
339
337
343
325
327
484
352
346
347
349
357
367
392
423
441
423
330
254
246
243
240
240
243
239
248
255
252
255
256
94
507
292
271
275
281
292
314
342
379
405
418
362
273
253
259
270
271
287
289
300
303
310
317
327
252
492
398
351
352
359
369
390
411
447
483
499
469
371
318
317
324
327
331
336
342
343
351
351
354
278
520
442
367
371
375
385
394
416
450
485
504
469
368
316
320
321
321
325
327
334
335
345
348
349
285
478
428
360
360
363
374
382
403
436
466
480
451
357
304
300
304
308
309
316
323
325
327
330
336
254
490
394
343
346
349
357
370
393
426
454
466
434
340
287
285
287
290
296
301
301
311
314
311
315
317
152
566
345
331
332
336
346
362
390
425
448
454
383
296
279
282
284
288
292
295
302
301
313
315
318
289
354
439
335
332
339
352
352
374
405
438
458
442
348
288
281
285
291
293
295
301
303
314
313
316
309
251
474
331
334
330
338
349
374
398
428
448
437
359
290
283
283
286
293
295
305
305
311
314
318
229
486
377
332
332
339
346
358
380
412
440
451
419
329
287
288
291
297
304
305
315
321
318
325
324
188
517
353
334
338
346
356
377
398
428
451
450
377
297
284
287
291
297
302
303
310
314
316
318
285
378
404
335
332
336
344
358
376
408
439
458
435
342
285
287
289
293
299
298
310
313
309
312
315
130
634
336
323
325
330
342
358
386
418
447
454
376
288
273
278
276
284
283
295
292
291
295
309
177
560
346
313
317
321
334
340
368
397
425
432
372
278
264
258
262
255
260
263
269
274
282
287
287
160
521
339
298
307
313
321
332
357
383
407
417
379
290
263
264
270
275
281
296
301
310
315
324
296
381
422
359
363
369
375
388
411
444
466
488
455
366
316
311
314
319
320
320
328
332
324
330
328
180
533
354
346
347
352
364
380
406
444
466
465
372
292
286
285
288
286
290
292
297
304
304
308
295
259
452
327
322
324
341
380
342
387
426
448
433
338
276
278
271
277
282
290
291
304
302
311
312
323
161
593
363
334
334
343
354
366
398
426
454
465
401
315
281
285
288
299
294
298
308
310
309
312
316
165
554
354
319
318
318
326
338
365
395
416
420
362
268
233
234
231
233
235
236
238
244
249
245
253
239
171
411
267
261
266
272
287
309
347
378
396
397
303
235
234
235
243
254
260
268
272
278
299
299
300
303
314
128
645
350
330
338
347
359
376
403
439
466
477
421
324
293
295
299
305
311
319
326
328
341
357
344
349
350
242
562
404
361
365
370
381
396
416
445
472
485
453
359
314
312
316
320
326
327
331
329
337
340
341
343
341
260
491
369
356
359
367
380
393
424
451
468
471
393
316
298
309
316
319
324
326
327
342
343
334
339
339
165
597
372
339
340
343
333
376
375
402
419
431
370
283
249
240
246
248
247
235
237
243
251
245
264
258
109
531
296
255
262
286
287
298
323
364
392
404
352
261
235
255
259
265
278
294
295
311
327
320
326
337
150
643
370
349
354
359
372
388
412
448
462
475
406
317
302
306
303
310
315
319
325
325
333
339
344
321
345
467
360
362
368
374
387
411
440
472
489
473
379
310
305
310
313
316
324
324
331
338
332
336
332
229
503
354
346
346
350
364
378
409
443
464
456
374
295
283
286
289
291
297
298
309
314
310
313
317
168
571
353
325
327
336
339
357
383
416
443
448
387
299
275
278
280
287
289
293
291
304
312
306
312
315
164
553
339
321
321
331
333
354
381
414
442
451
381
304
285
289
288
293
299
305
313
318
328
330
337
325
334
461
361
355
359
369
381
404
435
471
495
475
381
312
302
303
310
316
317
321
326
328
327
330
331
319
301
467
345
336
338
346
356
375
408
443
469
453
361
287
280
282
282
288
289
295
303
303
305
308
312
170
593
348
318
322
330
339
354
383
420
455
463
398
296
270
274
276
278
283
290
290
298
300
300
301
307
203
515
354
308
308
312
319
332
354
384
421
433
387
282
239
236
240
244
245
248
253
254
261
266
270
275
265
241
423
296
293
297
306
320
341
373
415
437
430
340
270
264
268
272
279
288
294
301
303
315
321
323
327
329
180
608
368
341
346
353
360
380
407
441
470
486
433
333
296
299
301
307
310
314
320
321
330
332
332
336
340
195
617
378
349
352
357
365
377
403
438
469
482
426
327
293
295
300
304
307
309
313
316
319
314
340
335
332
336
336
164
597
361
345
348
353
364
378
405
441
468
478
417
324
292
295
296
298
304
307
310
319
325
321
327
330
181
535
359
341
345
350
360
377
407
444
471
470
392
305
284
288
291
297
303
306
308
317
314
318
324
327
222
542
378
336
338
342
352
365
388
423
456
471
431
330
286
288
292
294
295
299
304
305
311
315
313
315
317
146
603
347
324
326
331
336
352
375
411
441
446
380
286
258
260
261
264
269
272
274
277
278
288
290
292
245
383
383
303
303
308
318
334
355
389
423
441
422
330
268
269
273
279
284
291
296
302
303
310
312
321
255
460
396
336
339
344
352
367
388
420
455
473
442
343
289
286
289
295
299
305
307
315
314
321
324
327
232
528
383
336
339
345
354
367
390
424
456
471
431
333
290
292
295
299
301
306
308
316
320
320
325
331
173
620
368
342
343
348
359
368
399
433
461
471
411
317
286
291
290
297
298
305
305
311
318
317
320
321
164
549
352
336
338
345
352
372
401
434
460
465
392
305
284
285
287
293
294
298
302
304
303
306
310
233
457
373
316
319
318
327
342
364
394
425
440
410
307
257
256
259
264
269
272
272
287
293
291
298
299
151
522
325
313
318
323
337
354
384
424
446
448
369
283
273
276
280
286
292
296
305
312
312
317
326
226
522
379
335
336
341
350
366
391
426
457
473
429
333
291
297
300
299
306
311
311
322
328
329
333
337
206
586
378
345
348
353
362
376
402
437
463
477
426
333
294
297
296
298
305
310
310
323
330
324
329
332
204
516
356
341
345
348
361
382
411
442
467
469
387
304
285
288
292
297
301
302
303
312
319
316
319
309
281
463
338
330
334
343
352
371
403
439
459
452
360
285
279
282
282
286
291
294
295
304
312
310
315
317
156
548
337
324
324
333
338
352
381
414
435
436
360
270
252
251
250
250
257
260
256
265
264
266
269
274
148
500
323
279
284
290
297
314
338
374
404
416
377
282
240
241
248
257
263
270
278
292
296
295
301
305
149
556
341
325
329
336
348
368
394
432
457
469
399
311
289
292
299
302
307
312
315
326
330
326
333
337
176
599
368
350
354
360
370
386
412
447
477
482
407
316
299
302
302
308
309
314
313
320
321
327
328
332
252
503
395
341
341
345
352
363
386
418
450
464
429
331
283
284
287
292
305
296
300
310
317
315
320
325
170
600
354
334
337
344
352
368
394
429
459
466
403
308
286
288
291
290
299
301
300
312
319
316
320
308
279
458
331
324
325
334
340
361
388
424
439
427
340
264
258
256
261
265
264
270
284
281
282
284
235
385
356
301
302
308
321
332
354
388
415
432
408
315
258
256
258
263
266
268
270
286
283
282
285
255
315
387
292
291
293
300
314
337
369
404
424
407
308
250
249
249
254
258
262
271
287
286
286
293
262
357
400
313
316
320
331
343
369
401
436
454
434
339
284
283
288
296
300
305
308
319
329
325
335
334
221
526
358
350
356
361
375
394
423
457
478
474
392
311
300
301
305
308
316
317
316
321
326
325
329
321
249
477
343
334
337
345
353
370
400
431
448
444
367
287
272
275
280
283
288
289
297
301
299
307
307
178
564
352
320
322
329
336
353
377
415
444
459
406
309
274
280
283
288
291
299
301
311
318
318
322
328
165
604
357
335
340
344
350
367
393
427
453
457
392
298
271
271
271
272
272
274
272
280
280
284
285
288
162
542
333
296
296
299
306
321
345
379
409
423
380
280
242
243
245
251
259
262
269
277
276
285
290
297
241
406
375
319
318
322
333
351
374
409
441
462
449
351
293
291
291
301
308
311
319
329
333
337
341
342
177
624
377
357
359
362
371
389
413
457
480
487
422
330
307
310
309
311
317
321
318
326
321
335
336
335
203
549
356
345
348
355
361
377
407
440
465
460
375
292
280
283
281
289
292
294
295
304
311
309
315
319
159
544
343
330
334
339
348
369
397
432
456
462
393
304
284
286
288
294
304
308
309
320
331
325
331
331
220
504
359
343
346
353
364
381
413
443
463
462
381
297
286
288
289
295
299
303
303
314
319
316
319
318
199
517
342
330
334
341
350
371
398
433
459
455
376
291
279
282
287
292
297
301
300
313
321
315
321
321
151
600
352
334
339
342
352
370
397
432
459
465
404
309
287
292
292
297
300
305
308
310
313
339
324
322
329
310
296
470
338
337
342
348
360
379
411
446
464
462
382
302
288
292
294
300
304
310
313
314
321
327
326
331
305
347
440
347
343
344
351
365
384
414
446
467
455
366
292
285
288
290
294
299
300
305
306
303
333
317
318
322
317
242
497
339
333
336
344
357
372
402
438
459
460
384
299
282
287
289
293
298
303
308
311
308
335
321
323
322
320
188
538
337
330
330
337
345
360
388
421
443
445
369
282
259
262
259
263
269
273
273
279
275
294
292
284
291
291
126
544
323
300
303
313
322
340
368
401
426
440
392
296
258
261
266
272
280
283
287
292
294
305
318
309
312
315
202
543
373
328
338
340
352
363
388
425
455
470
441
341
288
288
293
296
302
311
314
318
321
320
346
332
334
337
337
208
552
360
350
353
360
373
388
417
451
478
481
413
324
296
302
303
306
312
318
321
320
319
343
335
332
333
335
166
595
364
341
346
354
360
375
404
439
463
476
421
322
289
287
289
291
297
302
304
304
311
329
314
312
316
244
454
376
320
318
326
331
343
362
394
426
442
423
326
262
256
256
262
263
270
273
274
276
303
285
288
287
266
302
413
306
307
311
316
334
352
386
421
445
437
351
273
268
271
275
281
284
290
297
299
304
306
326
323
321
326
327
162
590
354
338
345
349
361
376
406
439
464
475
426
328
294
296
298
303
310
314
317
317
334
336
333
334
339
213
575
383
343
348
353
363
379
402
439
470
485
447
346
293
295
299
303
307
313
317
316
317
344
328
326
330
323
259
480
349
340
341
351
358
377
405
441
466
466
389
300
283
287
288
293
299
303
302
304
318
322
314
317
318
189
573
363
328
331
337
344
358
384
421
451
468
426
324
278
278
282
285
290
293
300
299
305
327
314
317
320
292
359
443
333
330
334
344
357
375
407
446
468
459
364
290
281
285
288
292
297
301
306
310
309
319
327
318
322
323
207
546
376
331
331
338
345
361
383
414
447
463
446
349
288
279
281
288
292
296
301
300
304
328
310
313
315
287
356
424
329
326
331
340
354
375
406
444
469
458
365
288
281
283
287
292
296
302
302
302
323
323
319
323
325
166
605
359
333
336
344
353
365
391
429
462
476
427
325
285
290
289
295
299
299
308
307
321
330
321
322
328
208
555
375
338
340
348
355
368
393
426
463
478
444
344
292
291
293
297
302
307
309
316
340
323
323
329
295
382
410
343
343
350
356
369
389
420
453
472
461
371
301
288
293
293
300
302
305
302
313
320
315
313
315
212
519
364
321
324
329
336
349
372
406
439
457
430
330
273
272
274
278
283
286
287
307
308
305
308
314
155
586
349
324
328
335
346
361
387
423
454
469
410
311
281
283
287
289
294
296
303
312
316
318
321
285
378
428
336
337
340
347
361
383
412
448
469
456
361
295
290
293
298
301
300
309
314
320
322
328
286
398
401
342
343
344
353
365
387
414
444
464
450
356
297
291
293
298
302
306
311
316
315
313
321
251
474
372
332
333
339
342
356
376
409
438
454
429
335
281
283
284
286
289
289
305
313
303
308
311
189
562
351
318
324
329
336
351
378
412
444
458
411
317
277
281
283
287
289
294
317
315
310
315
318
161
557
341
327
333
340
349
369
396
434
458
465
385
299
284
287
288
292
297
302
303
314
322
320
324
323
191
538
347
336
341
348
356
374
400
439
460
463
389
304
288
290
293
297
301
306
308
315
327
321
325
328
173
556
353
337
339
345
356
373
399
435
459
464
397
308
282
286
288
291
298
303
306
314
315
316
322
267
422
394
332
335
338
349
358
380
415
442
462
438
344
288
282
287
291
295
298
299
313
319
311
315
314
190
513
341
329
333
338
353
369
395
434
455
457
376
295
281
281
286
292
292
298
313
315
310
316
317
179
534
344
331
335
341
352
371
402
436
462
461
380
293
286
284
288
296
294
297
318
320
312
318
315
176
555
339
327
338
356
345
368
398
440
458
460
375
294
283
288
290
291
295
311
316
310
318
317
153
607
351
326
329
338
345
361
385
423
447
458
385
294
268
275
276
277
280
280
291
296
292
296
288
224
449
309
304
302
314
322
343
372
405
428
417
328
257
249
251
256
262
266
268
280
285
285
288
291
175
474
321
308
318
326
337
357
385
417
443
443
369
290
278
278
286
291
298
302
307
314
315
320
265
434
395
334
336
342
350
365
387
423
455
472
442
342
292
291
292
297
303
303
319
320
319
324
327
180
600
363
338
340
347
355
371
398
434
461
474
411
314
285
288
290
294
298
301
305
313
319
319
321
323
159
603
356
334
333
340
351
367
393
429
457
468
406
313
285
284
289
295
296
304
305
309
307
320
325
322
325
325
199
572
371
336
334
342
349
362
385
420
448
462
435
341
285
282
285
290
295
301
301
311
317
317
321
311
267
459
343
339
342
350
363
383
408
442
465
456
367
292
284
288
292
297
301
304
309
313
322
321
322
283
402
416
336
338
342
351
364
382
417
453
467
451
351
288
283
287
289
295
296
302
304
308
316
316
322
270
426
408
334
332
336
346
356
378
413
448
470
444
342
283
284
286
292
295
298
303
304
312
310
314
317
321
203
560
369
330
330
338
340
354
377
414
447
462
426
326
277
275
277
278
284
291
293
298
294
313
309
308
311
310
151
552
342
323
323
332
342
357
382
415
438
448
401
308
271
269
273
275
280
282
287
295
296
297
299
280
294
403
318
313
314
326
335
357
390
423
446
435
346
272
269
275
278
281
294
294
309
317
313
312
310
210
544
359
331
337
344
349
362
386
421
450
467
425
329
287
289
293
298
303
304
316
334
321
322
325
287
397
415
336
336
341
349
362
382
417
450
471
450
349
286
287
287
290
294
295
308
319
311
314
318
245
477
387
329
332
336
345
358
378
414
445
462
430
328
282
281
284
289
290
291
296
322
308
308
311
301
265
450
331
325
328
336
348
368
395
430
449
442
361
285
272
275
278
283
288
288
295
310
298
301
304
244
422
379
315
316
319
328
341
363
393
425
444
426
333
271
267
271
274
279
280
288
308
296
298
303
278
328
415
317
316
320
329
343
364
397
429
448
433
340
272
269
268
271
274
278
276
283
299
290
289
289
254
351
389
298
296
301
305
318
337
370
400
415
403
312
244
236
240
246
250
256
259
265
286
276
278
284
277
219
449
307
306
311
319
332
351
382
420
442
443
361
284
273
282
281
287
296
300
306
306
334
321
323
326
325
227
515
353
342
349
356
366
382
410
445
471
471
402
318
297
297
302
307
311
319
319
320
343
334
332
335
330
267
479
355
346
350
357
369
387
415
446
469
469
396
313
293
297
301
303
310
312
314
339
326
326
328
328
229
506
348
338
343
349
360
379
408
444
466
465
385
301
285
288
290
294
297
300
297
312
320
311
314
316
190
567
360
328
331
338
343
357
381
417
446
461
419
320
279
279
281
284
290
294
297
299
313
312
313
317
303
287
460
332
330
332
343
351
371
403
438
458
453
367
291
282
283
289
291
295
302
305
309
317
328
315
321
323
234
497
387
332
333
339
347
359
382
412
441
458
439
347
282
277
281
284
288
294
293
295
301
307
307
311
304
257
454
330
320
328
334
343
365
393
428
449
445
367
289
274
282
280
289
293
295
298
307
309
309
312
314
201
545
357
332
333
340
346
356
379
412
440
458
423
333
288
286
290
297
302
309
312
325
325
319
324
327
207
535
350
336
343
348
360
380
410
445
471
471
386
309
301
301
304
305
307
311
324
326
313
315
317
138
657
330
316
319
323
333
349
375
413
443
457
392
296
266
269
272
274
276
278
300
299
295
300
302
129
599
333
315
319
328
339
354
384
420
448
462
395
298
277
280
282
285
286
288
303
311
306
310
313
143
588
343
320
324
327
334
349
376
409
434
441
383
289
261
263
265
267
271
273
273
274
271
286
284
283
282
282
118
568
315
286
289
294
302
313
339
366
392
403
370
281
234
232
237
241
248
252
256
264
262
271
278
284
230
393
370
303
308
312
325
337
362
395
425
444
426
339
281
276
280
287
293
301
305
308
315
324
326
332
311
343
445
351
348
354
359
373
390
419
453
472
468
390
312
302
305
310
313
319
320
327
336
334
339
343
268
496
405
351
353
356
364
376
398
431
462
479
450
358
303
298
300
306
305
311
312
327
326
324
324
323
188
542
348
336
341
344
354
375
402
436
460
463
388
301
286
287
290
294
298
299
316
322
316
319
322
178
602
362
333
338
343
350
364
387
423
456
469
419
322
284
287
290
292
296
300
300
311
316
316
321
324
180
597
363
332
334
341
348
363
388
425
451
463
424
322
280
280
282
286
291
295
298
304
301
324
318
314
317
319
137
611
348
329
334
338
348
362
388
425
452
458
409
318
272
287
283
286
287
290
295
294
305
310
307
308
314
157
532
338
322
321
327
333
350
372
404
425
430
361
271
239
241
241
243
247
251
243
246
259
252
256
253
231
259
362
260
256
262
272
279
303
332
369
388
386
301
225
215
222
227
233
243
247
249
273
272
271
278
280
184
479
311
306
313
324
338
359
393
430
457
457
373
292
284
291
293
296
304
311
315
323
327
329
338
341
218
604
386
353
358
366
372
387
414
449
478
494
453
352
315
315
311
317
319
321
327
327
334
338
340
338
345
210
593
388
354
354
357
366
384
408
442
465
478
439
345
298
293
301
302
308
312
317
319
320
325
324
332
293
380
427
336
337
339
347
360
379
410
441
461
446
358
287
280
282
288
290
293
299
300
307
305
313
318
322
266
444
406
331
333
336
344
354
374
407
442
457
444
352
285
282
284
288
292
299
303
305
308
308
318
320
325
297
358
433
335
330
336
340
349
370
400
431
448
440
357
276
268
269
272
273
276
279
280
281
277
282
282
282
242
352
380
287
286
291
295
305
325
356
387
404
395
311
236
231
237
239
246
249
255
262
265
271
282
286
289
253
363
403
313
313
317
327
337
358
392
427
446
440
359
288
281
286
295
301
304
309
311
322
326
332
334
340
182
626
377
350
357
363
370
386
411
445
468
481
438
342
304
304
308
310
318
318
318
328
334
328
333
338
179
557
362
340
341
347
358
370
395
426
448
455
402
310
275
276
278
283
286
287
287
295
293
298
302
303
204
505
367
315
316
320
328
342
362
393
424
441
417
324
269
267
270
277
281
286
290
292
302
305
308
312
317
168
604
359
331
336
342
350
365
390
420
451
461
426
333
291
295
296
301
304
309
311
317
318
316
332
335
331
333
336
176
611
364
338
337
342
351
362
383
410
431
439
412
316
260
251
252
253
251
250
257
260
251
251
251
89
467
272
251
255
258
266
281
310
341
363
370
302
209
191
196
203
208
215
220
222
236
239
242
253
263
115
548
314
287
294
304
314
330
358
397
428
446
411
319
279
286
289
296
304
311
319
323
326
337
341
349
342
285
521
371
367
373
380
390
413
439
476
496
494
419
336
321
325
325
330
337
342
342
346
353
351
353
354
252
529
379
367
370
378
386
404
431
464
483
486
413
323
306
308
312
319
321
322
325
324
331
333
331
332
335
160
614
365
344
347
349
360
373
401
432
459
469
418
320
288
289
290
293
299
301
308
309
312
310
321
326
322
323
329
184
621
369
336
339
341
352
362
386
417
448
463
439
340
279
279
278
282
284
292
291
296
302
308
309
313
294
301
447
328
323
330
338
345
364
398
434
456
448
362
283
271
272
276
285
288
293
293
303
313
302
310
310
199
532
361
313
316
319
325
337
360
391
420
434
406
305
246
242
242
248
251
255
256
256
277
270
268
274
264
224
437
295
284
287
298
311
332
367
404
432
431
342
262
253
259
263
270
274
278
283
309
306
304
313
310
133
594
341
330
336
344
358
372
402
440
470
482
414
317
294
297
300
305
306
308
332
332
329
332
336
160
615
364
344
350
355
366
381
409
445
471
478
416
318
296
299
302
305
309
309
319
328
324
327
331
221
553
386
338
339
343
352
364
386
416
447
460
432
330
281
283
286
289
288
294
294
304
304
306
310
314
205
512
369
323
324
331
342
354
377
411
436
449
425
333
277
274
278
284
290
295
296
304
305
310
312
316
209
534
373
329
330
335
343
356
380
411
441
457
430
332
283
285
290
293
297
302
306
307
316
315
322
325
329
203
591
378
337
340
344
352
363
386
417
447
462
434
337
288
287
290
298
300
302
307
309
311
321
320
327
321
222
514
344
333
338
340
351
368
396
427
448
453
382
296
278
279
282
285
287
290
290
299
300
300
303
302
146
542
331
306
306
313
320
333
357
389
410
419
372
273
237
238
239
242
247
251
253
259
258
265
271
275
236
351
382
287
286
290
301
313
334
364
397
417
409
322
253
251
256
262
267
274
280
287
290
298
307
308
315
314
192
541
342
335
339
348
359
379
407
442
463
470
407
320
299
299
304
307
312
315
321
324
334
334
340
331
292
482
356
349
357
366
375
394
423
454
476
473
389
314
301
302
305
313
317
321
321
328
328
332
333
339
196
601
376
347
347
352
361
374
395
427
454
468
430
336
292
291
292
299
303
305
308
309
316
322
