380
406
430
425
360
303
285
289
293
298
304
309
312
333
330
320
325
327
199
565
349
335
337
342
349
362
381
411
440
455
416
334
292
291
291
290
294
297
300
310
324
313
313
316
293
359
400
330
329
333
338
347
364
390
421
447
445
376
307
293
294
294
294
300
300
305
311
316
319
315
333
331
326
330
332
209
563
355
336
337
341
352
361
378
404
433
451
433
368
306
292
292
296
292
296
300
297
301
318
308
306
307
285
331
366
310
307
310
311
320
333
356
382
405
403
342
271
247
243
246
248
253
254
257
259
257
279
271
270
272
275
171
437
299
290
293
300
312
329
354
384
412
427
390
318
282
281
286
289
294
302
310
313
318
323
327
331
334
336
339
342
345
346
349
352
352
352
366
364
363
366
302
541
407
370
369
373
376
385
398
417
438
458
464
439
374
327
322
323
328
328
332
334
335
341
340
341
341
341
347
341
347
358
351
353
352
238
556
377
353
362
361
368
377
396
419
438
455
447
395
330
309
309
309
307
319
311
316
317
319
325
331
327
326
329
239
525
351
339
343
341
356
359
379
403
430
452
444
370
312
292
292
289
292
293
299
296
302
297
307
312
308
308
308
187
509
324
311
312
311
319
331
351
373
401
417
387
309
261
254
255
257
260
265
267
271
276
272
278
284
295
290
293
296
232
456
345
307
311
314
321
332
349
374
407
430
433
372
303
278
280
282
286
290
295
300
304
306
311
310
331
328
324
328
327
230
497
346
336
337
344
354
368
386
416
441
458
427
347
304
299
300
304
304
310
311
311
314
317
316
319
319
321
324
321
318
325
327
320
323
321
208
536
341
317
317
321
324
334
346
369
396
409
411
367
295
266
264
267
271
275
279
282
285
287
289
293
295
297
301
300
300
318
316
315
318
314
282
447
339
331
336
344
351
364
384
411
438
451
434
363
311
303
304
307
310
313
319
323
327
329
332
333
337
337
338
341
340
343
352
349
348
354
264
550
387
353
353
358
365
370
387
409
434
456
468
423
346
311
313
317
318
320
326
329
332
333
336
335
336
336
335
350
345
344
341
297
445
379
354
344
352
358
365
380
400
420
445
451
420
345
307
295
298
303
302
304
304
306
307
307
309
310
307
309
252
434
344
313
313
314
322
329
345
368
395
414
417
365
298
273
268
268
275
278
283
285
286
292
299
300
301
304
297
277
423
322
319
321
332
339
353
380
404
430
442
403
331
296
292
292
297
301
305
311
315
322
320
324
320
314
325
429
340
335
341
349
358
370
397
423
448
457
407
337
307
305
305
310
317
319
324
336
335
323
326
324
194
557
336
324
324
325
331
339
359
385
412
427
393
305
257
253
252
252
253
257
260
263
262
286
276
271
273
277
132
535
297
287
290
296
304
317
338
368
399
420
400
321
266
259
263
263
270
272
276
283
290
293
296
300
304
307
311
313
315
318
318
318
320
322
323
334
325
330
331
246
500
343
335
335
338
346
358
375
401
419
436
444
395
339
295
299
303
308
314
318
322
324
335
336
340
346
348
308
422
365
363
356
362
369
375
387
416
445
471
465
414
346
315
305
310
313
314
320
316
322
320
337
338
332
336
337
231
502
357
343
347
349
355
366
388
412
441
448
423
341
289
278
278
280
279
280
282
285
286
289
290
291
308
301
302
303
268
406
377
316
317
320
327
340
355
380
411
435
446
402
322
287
287
288
292
293
300
307
308
312
313
316
325
321
318
334
334
330
339
332
270
471
345
335
341
342
349
356
376
395
421
433
416
347
286
268
269
266
269
273
272
279
283
282
284
285
282
299
299
294
295
298
187
461
321
307
311
318
327
339
357
380
407
422
417
351
291
276
277
283
287
291
297
304
306
312
314
323
326
327
332
336
237
547
364
345
346
352
356
362
382
407
434
449
451
389
323
301
301
302
307
311
316
320
320
324
327
325
327
326
328
289
404
392
334
330
330
335
345
355
374
398
419
428
380
303
270
272
269
271
269
274
284
281
279
297
288
291
290
290
176
498
314
304
310
316
322
341
357
390
415
435
409
336
292
287
287
293
301
302
308
313
318
328
331
328
332
335
220
600
358
349
351
356
364
375
393
423
453
474
464
384
319
304
304
303
305
307
310
312
315
317
320
320
322
324
322
322
339
336
330
332
330
267
488
346
338
341
346
352
365
383
410
437
451
444
372
310
292
292
293
297
298
303
307
311
312
313
314
317
318
318
319
321
320
322
321
319
322
330
322
320
320
206
557
334
310
306
307
310
316
327
344
364
378
385
357
285
244
235
236
239
244
245
251
256
260
263
266
270
271
276
290
289
289
295
258
389
362
314
316
321
333
345
360
385
413
439
450
423
354
311
307
309
311
319
324
329
331
334
344
345
347
346
352
232
544
374
358
361
370
376
386
404
430
455
470
457
385
329
318
316
322
326
327
332
332
332
336
340
340
338
343
339
262
489
355
346
346
349
358
370
389
413
437
451
429
352
304
298
297
300
306
308
314
315
318
327
330
323
327
329
204
582
351
334
334
339
344
355
371
396
425
448
442
370
299
283
284
285
287
289
292
295
297
299
303
304
305
307
309
309
312
312
312
315
315
316
318
317
319
317
309
319
318
318
231
540
346
316
314
314
319
325
338
353
375
392
399
393
336
277
259
261
263
266
272
274
279
280
283
286
289
290
294
294
299
302
301
306
303
312
315
315
260
456
335
330
333
338
347
358
377
402
429
444
441
383
318
299
300
304
306
315
316
322
325
328
331
336
337
339
341
342
342
346
342
350
352
353
264
512
371
361
361
364
370
379
396
417
442
457
455
398
328
307
304
307
309
311
315
316
318
320
323
322
323
323
325
326
326
327
328
322
333
334
336
262
515
376
340
339
341
346
353
366
385
407
429
436
418
350
295
288
290
292
295
298
302
304
306
310
310
311
311
312
322
320
321
324
257
483
370
330
333
334
339
347
363
382
410
430
443
412
335
291
286
288
291
293
298
299
302
310
313
313
315
316
198
486
339
326
328
335
340
351
370
397
424
442
430
355
296
286
287
290
292
296
298
301
307
313
309
313
317
202
473
337
324
325
329
338
351
367
392
418
435
423
350
296
285
286
289
292
297
298
308
312
311
312
318
200
480
342
325
326
331
339
350
369
393
417
433
420
348
294
283
284
287
291
294
297
299
307
310
307
308
310
197
464
332
319
316
322
329
335
357
381
405
427
413
345
291
276
277
283
286
292
293
299
300
304
303
322
314
314
318
313
292
417
336
330
334
344
351
366
386
411
431
448
430
362
308
294
298
298
304
309
309
318
320
317
321
323
247
483
361
331
335
337
345
354
371
398
426
447
446
379
314
295
297
295
297
303
307
311
313
314
317
314
328
330
328
331
331
230
539
359
336
336
339
347
354
370
392
419
439
446
398
326
295
291
294
298
299
301
308
311
313
315
316
318
317
316
332
329
327
329
328
250
466
345
335
336
342
349
359
376
399
425
441
434
371
308
291
292
294
295
299
304
307
309
312
314
315
318
320
322
320
322
332
327
330
331
285
452
379
336
336
340
343
351
365
384
405
427
442
422
351
302
296
296
298
301
305
308
310
314
314
318
319
322
320
319
333
331
330
330
334
211
523
356
338
340
348
352
362
378
401
422
443
447
395
325
296
295
295
299
303
306
309
310
310
313
314
315
312
328
322
323
323
319
297
423
338
332
335
338
344
356
373
397
423
435
425
358
302
292
289
292
298
298
301
303
308
312
313
310
315
326
322
323
325
271
456
368
332
334
334
343
349
363
383
409
430
443
412
337
298
294
294
298
299
304
306
311
313
319
321
318
321
324
208
505
345
330
330
335
342
350
368
390
419
439
429
365
303
288
290
292
295
298
302
307
308
310
311
312
317
324
320
322
324
249
493
360
330
331
336
341
351
365
383
408
431
440
405
334
296
292
292
296
301
303
306
310
313
313
314
313
325
325
322
323
326
208
545
349
333
331
337
342
351
365
387
415
433
438
386
320
292
291
294
296
297
305
307
312
310
318
322
320
320
325
210
501
347
331
332
336
346
351
369
393
419
436
431
369
308
292
293
295
299
301
306
307
312
312
313
315
328
322
324
326
300
382
391
336
333
336
341
348
361
379
403
424
438
416
346
300
293
294
296
300
302
308
309
311
314
316
316
316
330
325
324
328
303
386
395
336
334
338
342
348
359
377
401
423
435
420
354
303
296
298
302
302
307
306
313
314
316
316
319
331
326
326
329
295
409
384
337
336
338
344
350
363
383
406
426
439
415
345
301
294
293
297
300
304
307
310
308
313
315
318
319
322
262
459
365
330
329
333
339
346
359
379
405
425
435
395
326
293
291
293
296
299
305
307
312
311
314
315
313
326
327
325
326
329
216
547
354
336
338
341
348
357
370
390
414
432
438
400
329
302
297
301
306
308
309
312
316
317
317
317
332
328
326
328
322
297
425
341
336
335
344
349
361
376
400
420
436
425
364
309
297
297
300
303
305
310
315
315
319
321
322
326
232
507
357
332
334
338
344
354
367
392
417
434
434
381
316
293
292
293
298
304
307
309
311
312
317
317
320
322
324
261
477
366
332
331
334
339
347
361
380
405
425
437
401
330
295
292
293
296
298
304
308
310
313
314
316
316
315
331
325
324
328
313
338
416
337
333
336
342
348
360
376
399
421
433
427
364
309
298
299
301
304
313
312
315
321
320
320
323
334
331
331
337
294
422
386
345
343
345
351
359
371
390
415
435
447
423
355
309
300
300
302
303
308
309
310
312
317
315
319
313
279
423
334
326
328
331
339
351
371
396
421
436
409
334
290
284
288
290
294
296
301
303
307
309
311
311
312
328
323
322
325
305
372
403
336
334
336
341
349
360
376
399
420
437
423
360
307
298
296
297
302
307
312
315
320
328
324
329
329
280
430
351
340
342
346
354
372
390
413
434
449
423
349
304
298
297
300
303
308
308
307
313
313
316
316
316
240
485
353
323
324
325
334
342
357
378
406
427
432
382
313
287
284
286
289
293
298
300
305
307
308
305
320
315
313
318
309
296
430
332
327
330
336
342
353
372
400
424
440
424
357
306
296
300
302
306
308
317
319
325
331
328
331
335
220
513
357
346
347
352
357
369
384
407
433
450
438
367
313
301
301
302
306
309
313
315
320
321
325
325
332
299
405
381
339
336
337
341
347
358
378
405
424
435
397
326
291
283
287
289
293
297
300
302
305
304
304
322
319
318
322
313
304
428
334
329
331
338
347
357
376
400
425
440
424
352
303
296
297
297
300
304
310
314
320
323
321
327
226
519
361
340
338
343
351
360
379
402
429
448
441
376
318
300
297
301
304
306
312
310
319
320
320
320
323
227
506
355
328
330
335
340
350
363
385
412
432
431
375
308
289
289
290
295
300
303
304
310
311
311
313
328
325
325
328
294
411
400
338
338
340
342
348
363
381
407
428
442
415
342
301
288
294
290
290
294
299
303
308
308
315
286
364
377
328
324
331
332
342
359
379
413
437
452
410
344
318
311
308
311
318
327
327
322
329
330
329
332
332
268
461
353
343
347
350
355
367
384
408
432
446
426
352
301
290
291
294
298
301
301
306
317
311
311
314
269
423
368
321
322
327
332
341
356
378
406
429
435
385
313
285
286
288
289
295
299
297
308
317
312
311
320
251
474
363
328
328
331
339
346
364
381
410
432
438
385
318
291
293
295
293
297
300
310
312
319
316
320
300
368
386
335
333
336
343
349
364
381
408
429
433
395
323
290
286
285
292
299
301
301
307
308
310
310
271
403
365
320
319
323
330
339
357
375
402
422
428
381
312
286
282
286
289
292
296
311
311
305
307
309
191
488
328
315
318
323
330
343
361
390
415
434
409
336
292
290
292
296
301
305
307
327
325
322
324
328
197
532
348
338
340
345
354
365
384
410
436
453
433
357
307
302
302
305
306
308
311
318
333
323
324
327
297
387
399
337
336
338
344
353
367
387
413
436
444
401
329
296
297
299
299
303
306
306
320
324
320
322
325
202
514
352
334
338
341
349
363
377
403
424
441
428
358
304
295
292
295
301
304
309
317
319
318
324
316
288
425
339
336
338
343
351
366
386
411
432
444
408
339
297
293
298
299
303
306
306
318
319
316
319
309
312
419
334
330
332
338
347
362
383
408
433
444
402
327
294
291
292
296
299
301
303
325
316
314
317
317
240
458
335
329
332
337
345
356
378
405
429
444
410
334
295
292
293
295
297
302
306
308
309
330
320
320
322
318
269
453
338
331
333
340
348
361
380
406
429
444
418
345
300
293
295
297
301
304
308
310
312
313
320
329
321
323
326
239
521
363
336
334
339
346
355
368
391
414
433
440
391
324
296
294
296
296
303
306
309
310
320
329
320
323
325
249
487
362
333
334
338
344
354
369
392
417
437
439
382
318
292
292
293
299
303
306
309
312
310
320
326
320
322
323
224
534
358
331
332
335
342
352
368
390
415
434
436
382
315
291
291
292
296
298
304
308
310
310
314
330
319
321
323
284
418
385
332
330
333
339
348
361
382
409
429
438
400
328
292
289
291
294
296
302
305
305
309
309
320
321
319
320
321
204
540
348
329
331
337
343
352
370
392
418
434
433
377
313
291
290
294
296
300
305
307
310
308
329
319
318
321
314
285
432
338
331
334
339
348
362
381
408
431
443
418
346
301
294
295
298
302
307
310
311
313
311
327
327
323
326
327
195
548
348
333
334
339
345
357
374
397
423
440
433
368
308
291
292
294
298
300
307
307
307
320
320
317
319
319
196
514
343
328
329
336
343
355
373
398
419
441
425
361
306
291
288
293
298
304
304
309
313
316
319
323
325
247
486
364
335
336
341
347
359
376
394
420
442
439
386
324
294
297
299
303
310
309
309
325
325
319
325
324
235
474
344
332
338
344
354
368
383
413
436
448
421
347
304
296
299
301
309
307
310
330
326
318
322
322
212
496
343
330
333
338
348
361
380
410
436
450
416
341
299
290
292
294
296
296
306
323
312
310
313
308
270
433
329
322
326
333
340
359
377
407
435
444
398
322
287
286
288
288
292
297
300
304
305
311
327
317
319
321
299
367
409
334
333
336
342
351
365
386
415
439
454
412
336
297
294
295
296
300
302
307
311
315
317
318
318
341
327
326
326
328
255
480
344
335
336
342
350
364
384
406
432
448
434
361
304
293
295
295
299
302
308
312
313
312
335
320
323
324
311
327
416
338
333
337
345
349
367
385
415
442
450
414
337
296
291
293
294
300
304
307
307
316
331
318
319
321
279
427
379
330
331
333
341
349
366
388
418
443
449
392
319
290
290
289
293
295
301
304
307
308
313
326
316
317
321
272
434
379
329
327
330
336
346
361
383
413
437
445
396
321
291
289
290
293
295
300
304
308
312
313
314
320
331
322
323
326
254
502
370
335
335
338
345
355
370
392
420
443
452
403
328
297
293
295
298
301
304
309
312
317
317
314
329
328
324
326
327
218
549
357
334
335
338
345
361
374
397
424
444
444
387
320
293
294
294
298
298
306
309
306
310
312
331
320
318
320
315
283
432
337
328
334
339
346
363
380
408
431
448
424
349
302
290
294
295
306
304
309
309
311
320
330
318
321
322
224
524
353
330
329
335
343
354
370
395
425
448
449
382
315
293
293
294
299
301
307
307
312
332
322
321
323
320
245
467
339
330
333
340
347
361
383
411
437
455
419
342
296
291
294
294
297
301
305
308
309
334
320
320
322
320
238
477
342
331
335
339
346
361
379
408
435
451
424
350
297
290
289
292
295
299
302
306
306
321
321
316
319
321
200
547
348
329
331
334
342
352
369
396
430
445
439
368
304
287
289
294
292
294
299
300
320
318
313
316
317
192
542
342
323
327
331
339
349
368
395
424
445
429
353
297
285
286
286
290
292
292
301
315
302
305
308
265
395
370
313
312
314
320
329
341
366
395
418
422
366
294
269
269
272
275
275
284
288
290
289
300
303
298
302
300
194
513
337
313
318
324
333
344
364
386
415
433
436
377
312
289
288
290
296
299
305
308
310
316
321
322
326
313
316
427
341
335
338
345
353
366
389
419
442
454
412
335
298
295
297
300
304
308
312
314
317
320
317
331
330
326
329
331
208
580
356
335
337
340
347
358
373
395
421
439
444
385
317
293
292
294
297
299
303
309
309
310
328
320
322
322
323
234
475
340
332
335
339
345
357
372
402
426
442
418
344
295
285
285
286
290
295
298
298
306
311
310
313
313
241
440
332
322
324
329
338
350
372
398
423
436
409
334
289
283
285
288
293
298
301
305
308
305
319
324
318
321
323
220
548
356
330
332
336
344
355
370
393
420
439
443
389
319
296
296
297
298
302
306
307
314
314
318
322
326
302
364
402
333
331
335
341
347
363
381
411
432
443
398
330
295
291
293
296
297
301
304
304
313
317
314
318
317
199
506
347
327
328
333
339
352
368
391
417
430
423
357
297
283
286
286
289
293
295
297
302
303
304
309
310
242
469
360
321
322
326
333
343
360
380
409
430
434
378
309
287
288
291
293
297
302
305
311
315
314
319
321
227
529
358
331
332
335
342
351
368
393
418
435
433
371
307
289
293
293
297
300
303
306
307
313
313
320
301
353
389
330
328
335
342
347
364
385
409
428
434
395
328
295
292
289
299
306
304
313
314
313
314
317
261
448
363
327
327
330
331
350
366
388
414
433
435
380
313
293
291
294
296
304
303
311
317
313
319
319
230
497
347
320
328
324
335
338
364
387
416
437
434
367
305
290
289
290
294
299
304
324
317
320
313
313
261
449
330
326
333
338
347
358
384
408
436
444
400
326
299
298
299
298
300
298
321
323
316
318
318
201
511
340
327
329
334
340
354
372
400
423
441
408
339
296
295
296
295
300
297
302
317
314
313
315
308
271
435
329
323
324
327
335
349
370
390
414
422
385
313
283
283
282
286
290
293
294
299
302
306
307
306
313
320
318
319
323
257
496
368
333
330
330
337
350
357
377
398
417
424
402
338
297
293
289
296
296
302
302
309
305
313
321
319
320
319
237
494
355
328
329
332
340
352
366
387
412
426
428
379
318
296
293
298
299
300
308
306
311
311
313
318
322
245
483
361
331
332
337
343
353
368
390
414
429
432
376
316
294
298
298
301
305
307
310
311
313
311
317
324
321
321
322
233
523
357
328
330
334
341
348
363
384
404
423
428
384
317
292
293
295
297
300
303
307
310
310
317
315
319
311
302
418
335
331
334
338
344
357
377
400
423
435
401
336
301
295
296
300
302
307
311
314
312
323
323
323
326
330
225
527
359
338
340
343
348
360
374
394
415
429
429
376
309
291
292
295
299
300
303
305
308
308
304
325
319
315
321
297
356
413
322
331
320
331
342
358
370
410
426
435
395
311
288
285
277
283
281
282
295
294
295
312
309
303
325
283
357
405
327
333
333
341
350
362
389
415
432
444
407
336
302
299
302
304
306
314
318
316
325
332
323
324
326
195
532
351
333
338
341
348
357
378
399
424
435
421
357
302
291
291
295
296
302
301
307
306
309
311
314
218
492
357
324
327
330
337
351
366
384
409
425
420
363
301
284
288
294
302
302
305
306
302
309
309
310
309
322
316
318
323
259
493
370
334
335
339
340
350
365
385
409
427
433
404
337
294
292
293
296
301
308
316
310
320
332
325
322
330
215
542
360
336
339
337
349
353
371
396
411
414
425
348
287
274
291
289
294
290
299
308
310
310
311
230
468
357
322
324
334
342
362
373
401
422
433
433
371
313
297
298
297
302
304
303
307
312
317
314
317
302
320
404
333
329
331
339
345
358
380
403
419
427
389
319
285
284
286
293
296
300
309
307
315
315
317
282
393
376
328
328
327
330
343
362
391
415
437
435
376
311
282
283
281
284
286
289
301
305
302
304
304
181
506
328
319
321
325
336
350
368
389
420
433
397
330
289
282
288
285
294
292
297
303
308
307
314
314
188
544
334
325
326
336
338
352
367
392
411
425
420
347
299
294
296
305
303
303
303
309
315
331
326
325
326
279
431
393
332
329
333
342
348
362
390
407
421
423
385
320
293
292
293
297
298
303
316
319
298
312
320
244
421
335
326
326
333
343
355
372
396
413
416
395
315
283
281
290
291
296
297
294
300
296
303
300
305
201
497
340
311
311
315
325
333
348
369
392
406
403
345
286
274
275
279
283
287
290
294
296
301
303
308
289
321
408
326
323
326
336
344
358
379
406
425
431
387
321
294
293
297
295
302
309
313
313
317
320
321
325
212
523
361
335
339
341
347
362
379
404
425
436
425
362
309
297
300
304
308
311
315
318
317
320
330
325
330
329
247
503
374
336
339
343
349
359
375
397
420
436
434
382
316
295
295
298
301
304
308
311
311
320
317
323
297
362
402
336
334
334
339
348
362
386
413
432
436
379
312
289
288
289
294
292
297
301
299
296
306
309
304
306
299
259
421
319
313
315
320
327
339
360
384
404
414
380
309
270
263
268
272
276
278
285
286
295
295
299
269
356
375
314
313
317
324
335
351
378
408
428
425
362
300
281
283
284
287
292
295
301
304
307
308
307
324
320
317
320
303
340
421
333
330
331
337
342
360
379
407
428
439
404
330
294
288
289
290
295
299
304
307
310
317
315
319
319
244
459
337
330
335
339
347
365
384
412
435
448
400
327
293
289
290
292
300
304
310
309
314
309
317
327
322
325
327
245
498
373
334
337
341
347
356
376
399
424
443
446
387
317
292
291
291
295
297
302
305
309
309
313
316
320
267
437
373
327
323
326
332
341
358
380
408
428
424
356
293
276
278
275
283
283
291
289
292
289
297
295
291
312
305
303
308
291
333
427
317
316
318
324
334
346
367
394
420
433
403
328
283
280
280
279
285
287
292
297
300
303
326
313
318
318
317
217
488
336
325
328
334
338
351
373
398
422
439
409
336
287
281
283
282
285
289
295
296
298
297
316
309
306
306
314
200
485
338
325
326
332
342
354
373
395
423
435
419
350
299
290
290
294
299
305
308
308
311
316
318
319
321
301
355
402
333
327
330
334
344
357
377
406
428
434
380
306
276
276
276
277
281
282
287
292
289
301
306
299
301
304
189
538
335
311
315
319
326
336
355
382
412
433
425
357
298
284
282
286
287
294
299
301
306
303
321
324
320
324
326
202
525
351
333
339
343
355
366
387
411
437
452
436
363
309
297
295
298
307
310
313
314
316
323
325
325
326
323
254
455
344
333
335
340
347
361
382
410
435
449
409
333
290
286
289
290
292
297
300
302
302
309
323
312
313
317
248
482
362
325
324
329
337
347
363
386
415
437
440
379
309
289
289
292
292
296
300
301
308
308
314
327
319
320
322
274
441
377
331
329
334
342
350
366
387
418
439
444
392
321
294
291
289
296
297
304
307
312
316
316
321
321
326
261
471
369
334
334
340
347
353
373
395
424
443
446
379
314
292
292
293
295
300
305
306
309
310
310
324
324
318
319
322
192
531
347
329
335
337
348
362
378
410
437
449
439
364
301
292
297
299
304
306
309
311
313
311
323
326
327
312
321
424
337
329
335
337
349
363
385
418
444
454
407
330
296
289
291
295
295
301
303
304
306
305
314
318
314
315
317
205
528
343
322
324
326
334
345
361
387
416
436
433
364
299
280
281
281
286
287
293
295
298
296
318
312
311
313
313
197
500
333
321
324
330
338
350
370
399
430
448
417
338
289
285
282
284
286
289
295
297
301
298
316
312
309
313
316
203
479
333
324
322
329
337
351
369
396
421
431
407
333
287
276
274
278
279
285
285
286
295
300
294
296
300
217
431
323
308
312
316
328
338
358
392
415
424
386
307
270
268
269
272
277
282
284
291
300
299
304
304
304
217
508
347
317
323
326
336
348
368
391
424
441
437
367
302
291
289
292
299
301
309
309
320
320
321
320
328
228
529
361
336
338
341
351
359
379
406
436
454
445
367
308
293
295
298
299
306
309
311
311
316
329
321
324
327
308
364
418
339
335
336
345
353
368
392
424
449
457
408
328
294
291
294
295
297
301
303
308
310
313
315
318
318
319
320
322
323
326
327
324
328
339
333
332
334
258
532
371
336
336
339
343
350
366
386
408
431
443
425
355
300
288
289
290
292
297
301
307
309
311
313
316
318
318
316
333
326
325
326
314
321
444
337
332
334
339
348
361
381
408
438
454
429
348
293
284
286
287
287
291
295
300
302
304
306
307
309
307
308
321
312
310
312
275
398
387
314
312
312
317
325
338
357
389
414
431
400
316
264
257
259
260
265
269
274
279
283
285
289
291
290
311
306
305
307
305
226
472
328
321
324
331
340
353
373
402
432
451
435
356
298
288
289
290
295
299
304
310
313
315
315
318
335
327
330
332
289
432
393
340
341
348
349
358
374
396
422
446
455
414
338
299
295
296
300
302
309
311
313
318
322
326
323
326
325
235
471
347
335
337
341
351
365
381
408
434
450
424
345
291
281
281
281
285
286
288
287
289
288
288
294
293
290
291
233
420
343
292
292
296
301
307
322
347
376
400
408
358
282
249
249
251
254
259
264
270
276
279
278
293
298
297
302
297
273
428
323
318
323
331
340
355
378
409
438
455
420
341
297
295
298
298
302
305
313
315
316
320
320
319
339
333
334
337
335
215
528
359
342
347
350
358
369
389
412
441
457
445
377
316
298
295
300
302
308
313
314
320
321
322
325
326
237
503
363
337
336
340
344
359
374
401
430
452
445
375
306
290
287
291
293
297
301
306
305
308
307
317
322
318
322
319
268
459
339
332
333
338
346
360
379
407
435
450
424
343
294
289
289
289
295
297
302
306
308
304
322
321
320
322
321
231
480
338
330
331
337
344
356
378
404
431
448
420
342
292
284
286
288
289
294
295
299
301
298
314
312
310
310
312
182
519
329
311
312
316
322
333
349
374
401
419
409
336
279
269
267
263
272
273
278
284
288
293
293
297
298
220
430
324
316
317
325
333
347
369
396
425
436
400
329
290
287
283
291
295
302
303
309
319
319
314
320
319
201
543
349
333
335
344
345
358
374
402
430
442
430
362
307
297
294
302
301
310
314
315
324
327
321
328
323
224
503
342
334
336
340
349
365
386
414
440
456
412
335
299
294
295
294
295
305
305
314
317
316
315
319
265
453
372
329
327
331
337
345
361
388
421
444
443
372
301
285
284
289
290
293
296
300
306
304
320
317
313
316
318
210
546
349
325
327
332
339
349
367
394
425
448
446
374
305
288
290
291
293
296
297
302
308
310
313
315
319
321
321
324
326
326
329
330
332
332
334
335
332
339
344
339
341
329
358
460
351
345
345
349
355
366
380
405
426
439
441
389
324
298
298
297
297
302
305
309
311
315
315
318
317
318
320
329
327
327
329
235
524
367
332
334
336
342
350
366
389
419
441
447
390
315
286
285
286
287
292
297
300
302
305
308
310
312
315
315
316
314
325
328
324
326
314
328
444
337
330
333
338
345
358
376
402
430
448
432
356
300
286
288
290
292
295
299
304
306
307
311
313
315
316
318
320
321
323
323
322
329
335
333
333
294
443
400
339
337
344
349
354
370
387
412
438
450
435
365
311
297
297
301
304
304
310
312
313
319
317
319
321
318
327
332
326
332
330
259
467
347
334
338
342
351
363
376
406
435
449
439
368
304
291
290
292
296
298
303
305
309
311
313
315
317
315
322
327
325
324
330
202
563
354
333
334
338
343
352
366
391
421
443
448
393
317
290
289
291
293
297
301
306
306
310
311
313
317
317
319
321
323
321
330
335
330
334
320
333
449
342
337
339
343
350
362
379
403
430
445
437
371
310
293
294
293
298
300
307
309
312
314
317
318
319
315
325
329
327
330
334
219
505
355
338
341
347
352
359
380
405
429
450
450
385
318
296
293
294
298
302
305
307
310
310
315
315
313
325
328
322
325
327
194
550
351
329
332
336
342
353
368
393
422
442
445
385
311
287
288
289
292
296
299
303
306
310
310
313
315
320
321
324
304
351
421
336
330
332
337
344
356
376
406
434
448
424
343
292
286
289
290
293
296
301
304
309
310
312
314
316
312
328
326
327
325
325
209
513
344
329
333
340
342
350
370
392
419
436
437
381
308
287
285
285
288
292
296
300
300
307
311
308
311
316
190
504
339
322
326
329
337
348
364
391
424
442
432
360
298
282
282
284
290
295
297
302
304
304
315
313
315
318
320
201
559
353
329
330
333
341
350
367
391
421
444
449
387
311
286
290
291
293
298
299
305
308
312
314
310
326
326
324
325
328
206
581
357
333
334
337
345
354
368
393
423
447
452
398
322
292
292
293
296
300
300
309
309
315
319
320
321
325
218
530
361
332
332
341
345
355
371
395
425
446
447
384
315
292
294
291
294
299
305
308
310
313
314
314
332
325
323
325
304
353
410
336
332
336
341
346
362
383
406
432
448
425
351
296
286
284
289
292
296
299
302
301
306
310
307
311
312
213
516
346
318
315
318
324
332
345
369
399
420
423
361
288
260
260
260
263
264
268
272
276
279
281
279
282
283
279
298
293
289
291
287
223
450
306
299
302
307
313
326
344
370
399
418
413
352
283
266
271
272
277
281
288
294
295
304
302
305
317
317
320
323
326
209
550
362
338
340
346
353
366
380
407
434
453
459
402
336
305
305
306
309
316
320
320
325
327
333
332
335
320
350
417
351
344
349
354
361
374
395
422
447
462
424
345
307
296
296
299
303
307
307
310
311
318
318
315
320
317
246
466
337
331
331
335
342
354
374
400
431
447
426
348
294
286
289
290
292
297
300
304
306
308
317
316
319
316
261
465
337
332
334
337
343
355
376
406
433
450
423
343
292
290
290
289
295
296
301
306
310
310
312
320
326
322
326
330
265
474
380
335
336
338
344
351
367
383
412
432
445
414
341
301
294
295
296
300
306
305
315
321
314
317
322
200
518
349
328
332
338
346
357
373
412
431
440
429
352
296
280
283
283
288
295
296
297
300
305
303
312
315
319
267
443
373
324
323
328
333
342
356
379
406
430
443
402
330
292
292
292
296
296
302
307
309
311
309
330
324
321
327
323
229
488
340
331
334
340
347
359
377
402
430
446
437
360
302
291
292
296
298
301
305
309
311
311
311
327
320
320
320
300
351
410
333
329
331
339
345
360
379
404
427
440
416
342
291
283
284
286
290
296
296
302
300
297
310
312
309
312
314
212
527
351
324
326
329
339
348
364
386
412
432
439
393
318
290
288
288
295
297
301
306
310
311
309
323
326
323
325
327
204
560
359
335
336
342
351
360
374
397
423
443
447
393
322
298
295
297
301
303
310
311
314
317
316
312
328
327
328
327
330
198
567
355
333
337
341
344
355
371
394
419
433
440
385
317
290
286
286
289
291
297
299
300
304
305
310
310
313
281
378
383
324
325
327
341
346
357
380
403
423
436
406
332
290
283
286
290
294
299
301
304
306
307
313
316
316
319
314
258
465
338
328
328
339
341
355
376
399
423
438
424
353
291
280
281
284
287
290
294
296
299
302
307
307
311
288
344
401
326
322
325
330
339
353
376
403
426
441
409
331
288
283
286
289
292
296
301
300
305
305
309
309
310
281
358
389
317
313
315
319
326
341
357
383
406
422
390
318
273
273
274
275
283
287
291
293
298
303
302
309
301
303
401
332
327
331
336
343
356
376
403
425
438
415
344
301
294
295
300
304
307
305
318
318
319
324
325
237
504
360
338
341
340
348
361
373
399
426
444
448
389
318
290
294
286
305
305
307
310
316
321
320
323
323
241
482
348
340
343
348
355
367
387
408
432
450
424
347
298
291
291
293
291
298
300
311
314
314
322
316
229
477
336
314
341
342
349
358
379
408
432
447
418
330
291
298
288
296
294
298
305
305
309
313
313
224
500
355
320
325
327
335
347
367
392
417
437
436
369
305
285
285
290
291
296
300
308
313
311
316
298
331
406
333
330
335
343
348
365
381
409
431
442
401
325
289
288
288
292
298
300
309
309
309
313
317
216
532
356
326
326
331
337
349
364
390
420
438
435
368
300
286
287
289
291
294
296
306
308
311
313
316
211
543
355
327
328
331
340
350
366
390
416
438
439
372
305
288
288
291
294
295
302
303
305
307
327
318
318
319
322
187
531
343
330
329
335
343
353
370
391
414
429
427
365
299
279
278
283
282
288
287
295
299
296
299
301
179
483
325
312
316
322
332
344
364
389
416
430
407
330
285
279
282
285
289
293
299
302
304
304
326
319
318
321
319
224
498
340
332
334
341
351
364
382
404
429
440
434
362
306
296
293
296
301
300
305
306
313
317
317
288
369
390
329
328
332
337
349
361
381
406
424
428
383
318
290
288
293
295
299
304
309
311
312
320
319
278
411
385
328
329
334
342
358
372
386
414
431
437
390
323
293
292
296
305
307
313
315
317
317
322
320
288
389
397
334
333
335
346
352
369
389
415
436
444
393
325
296
292
295
298
301
306
317
319
313
315
316
183
552
342
323
327
331
338
350
370
396
421
439
423
348
292
284
284
288
290
292
306
309
304
308
309
203
537
346
321
324
329
335
348
367
394
423
448
441
369
304
292
293
295
298
300
302
323
317
316
318
319
181
529
337
329
331
338
346
360
381
410
435
450
422
341
295
286
289
290
295
300
302
304
310
319
314
316
318
246
475
367
327
329
331
337
350
365
389
414
432
439
386
315
288
287
291
293
296
301
305
305
311
323
315
317
321
234
513
367
330
331
336
341
353
368
391
416
438
442
387
315
292
290
293
297
301
301
303
320
321
319
320
320
214
482
343
332
335
340
347
361
379
405
430
440
414
340
297
288
289
294
301
303
304
307
314
314
315
318
257
444
374
329
329
332
339
350
365
389
414
432
436
381
309
284
283
288
292
296
298
301
301
305
320
311
314
317
271
423
387
329
327
332
337
348
364
385
412
434
440
397
324
290
289
292
294
298
303
304
310
311
313
329
321
321
324
309
316
432
336
334
333
338
345
362
384
403
427
437
410
331
283
278
278
286
287
293
299
293
296
296
309
303
302
301
198
510
345
309
309
313
317
324
341
361
389
408
405
345
284
254
253
260
264
263
271
274
277
276
285
288
295
298
230
441
354
308
305
318
322
339
350
385
409
431
436
381
302
281
284
281
288
295
298
304
309
314
315
320
321
196
527
358
336
341
344
357
373
389
416
440
458
440
366
311
301
299
305
309
312
315
318
320
324
331
329
333
300
396
412
341
340
343
349
359
372
397
425
446
454
411
328
297
297
296
296
300
309
304
315
321
317
319
321
211
537
359
331
332
336
344
356
374
399
426
444
438
366
303
288
290
291
293
296
297
306
317
310
312
315
259
442
376
326
326
329
335
346
361
384
412
433
435
374
307
285
285
283
287
287
291
293
297
292
300
305
301
302
302
172
518
330
308
310
314
323
336
352
375
397
411
407
353
287
267
269
273
278
283
287
288
297
298
300
303
307
183
537
344
320
322
328
336
348
368
394
419
437
429
358
300
287
291
294
298
302
308
310
314
316
319
319
324
335
332
334
337
249
539
384
346
343
348
354
362
378
399
423
441
449
412
338
300
300
301
305
308
311
316
320
319
325
326
331
240
502
376
341
341
345
353
364
382
406
429
447
441
377
315
294
294
297
302
305
307
309
312
312
309
325
325
323
321
320
215
496
341
330
332
337
346
357
377
402
427
439
425
357
301
288
292
295
296
301
302
307
310
307
314
318
317
319
240
486
371
329
328
331
342
352
367
390
418
435
441
388
318
289
289
291
295
298
305
309
309
314
317
320
280
405
376
334
335
339
344
354
370
393
419
440
441
389
320
293
293
292
301
304
306
307
313
312
314
317
319
213
526
356
328
329
333
341
352
371
394
423
444
435
363
300
283
283
286
289
295
298
300
306
312
311
314
309
264
457
332
326
329
335
343
358
381
413
441
454
403
321
286
285
287
289
292
294
301
305
305
317
320
317
320
322
178
583
347
328
327
335
339
355
370
400
427
444
434
363
303
288
288
292
292
295
306
310
318
318
322
314
290
431
343
339
343
344
357
370
394
423
445
455
398
325
293
291
294
294
300
300
302
305
309
306
312
314
252
459
358
323
326
327
333
344
359
383
410
430
430
367
303
283
284
285
289
293
297
302
304
301
316
316
314
316
318
210
530
347
327
331
331
338
351
368
391
418
437
432
365
310
292
294
295
297
302
304
311
311
315
316
315
326
332
327
330
332
256
498
369
340
342
345
352
361
377
397
423
442
447
400
333
300
294
298
300
304
308
308
309
318
320
316
320
323
217
523
349
329
329
334
340
349
370
393
420
439
424
352
297
285
285
287
289
293
297
301
303
306
305
305
323
319
317
321
310
308
435
335
331
333
338
346
360
379
406
430
444
415
342
298
296
294
297
299
300
306
308
316
319
318
322
328
218
529
355
336
337
340
347
358
374
398
427
445
433
361
307
294
297
297
299
304
307
312
313
314
321
322
322
327
311
343
412
338
333
336
341
351
362
383
410
432
444
404
332
293
290
292
294
297
301
304
308
311
313
315
313
322
326
323
327
327
219
555
353
332
333
337
344
352
366
390
416
437
441
385
318
294
294
295
298
299
304
308
311
314
313
322
326
323
325
328
227
524
358
336
333
341
343
354
368
391
420
439
436
377
314
294
290
289
294
296
300
305
304
308
314
312
314
311
279
413
329
321
322
328
338
348
366
395
415
427
387
317
278
271
273
275
279
282
283
287
287
292
295
293
297
287
287
401
313
304
310
312
321
333
357
385
407
422
382
309
272
269
272
274
278
284
288
290
300
304
304
307
312
199
533
341
324
327
333
341
352
368
394
424
444
433
362
306
298
298
301
301
305
311
314
320
322
321
337
333
336
336
323
338
434
346
346
348
353
362
374
392
420
443
453
420
350
305
299
298
300
301
308
308
315
314
318
319
319
288
383
384
331
330
332
336
346
360
380
409
433
435
375
308
284
278
282
285
290
294
296
297
305
309
308
309
304
247
452
327
319
323
330
339
352
374
404
434
448
408
326
285
282
285
286
289
292
297
300
306
313
311
314
316
188
518
337
326
329
333
343
357
378
409
439
457
420
337
290
288
290
292
296
299
304
307
307
322
322
319
322
326
203
566
356
335
337
340
349
360
378
406
432
452
443
371
307
294
292
291
293
296
300
304
304
309
312
315
256
448
376
323
322
323
329
337
352
378
407
428
423
360
289
272
268
270
272
275
275
279
283
290
290
293
295
172
480
324
306
309
316
324
338
360
387
412
427
409
335
288
277
282
286
294
299
300
308
312
312
315
319
235
494
363
333
334
338
350
360
380
402
432
450
443
372
312
295
293
297
301
306
311
315
325
319
320
325
247
487
367
333
334
338
345
356
375
401
429
449
445
370
308
291
291
293
297
299
303
304
321
319
318
319
321
198
511
337
327
331
337
346
361
384
413
442
458
414
333
293
290
292
293
296
298
300
322
319
313
315
319
204
556
349
330
329
334
342
353
372
401
430
450
433
354
295
286
287
289
290
292
298
320
308
307
311
304
271
431
327
323
327
333
341
356
380
408
433
440
381
308
277
278
278
278
279
282
289
287
287
305
297
291
295
295
174
480
315
303
304
311
318
334
349
376
399
416
395
323
272
267
267
276
280
283
287
287
296
304
302
307
310
210
502
351
323
325
332
341
354
375
400
429
447
436
367
309
291
292
294
302
304
308
310
319
321
320
320
324
208
500
344
334
335
341
352
364
387
419
444
458
415
336
295
292
295
298
302
305
308
311
312
314
335
323
325
327
311
329
440
341
336
340
346
356
371
393
422
445
458
413
334
298
296
298
298
300
305
308
310
307
329
322
323
323
325
196
517
345
332
333
340
350
361
381
407
434
449
419
347
297
289
289
291
294
298
304
306
308
311
316
318
272
413
380
329
329
333
341
350
366
390
420
442
441
374
305
284
285
286
291
296
300
305
307
310
308
330
322
320
324
322
216
510
341
332
334
339
348
361
381
408
434
450
423
343
294
288
289
291
294
298
300
304
306
304
320
322
317
320
321
192
557
352
328
332
333
340
352
371
396
421
442
429
354
299
282
283
283
286
288
293
298
300
306
306
310
295
309
402
324
323
325
331
342
356
379
409
433
440
385
311
281
281
284
288
291
296
300
304
307
307
306
325
319
319
321
306
310
437
332
328
333
338
346
360
380
409
432
445
409
334
293
287
288
292
295
297
303
307
307
311
324
318
320
325
277
422
392
333
331
337
343
351
368
391
419
441
446
388
315
292
289
290
293
299
302
306
310
309
319
325
322
323
326
207
544
361
335
337
342
349
361
378
402
429
449
438
367
304
290
292
293
298
301
304
307
309
313
309
327
325
321
324
325
201
521
344
333
335
340
347
360
378
408
432
448
422
345
294
286
287
290
292
297
299
303
303
305
316
317
315
314
287
361
395
328
327
328
336
344
358
382
408
430
438
388
317
282
281
282
287
291
295
295
299
306
312
311
313
313
196
486
339
326
329
334
343
356
374
403
429
444
411
335
290
285
287
291
294
298
301
305
308
311
312
310
328
326
325
327
316
309
451
341
335
338
344
352
365
386
413
437
451
419
343
298
293
293
297
300
305
306
309
314
320
320
323
319
256
448
341
335
339
342
351
365
387
412
437
446
403
330
292
288
289
294
298
300
304
307
308
309
305
325
319
319
320
319
240
469
339
330
333
339
348
359
377
403
427
441
418
343
291
284
284
288
290
294
296
298
298
302
306
307
308
292
307
411
318
313
316
321
329
344
364
393
416
425
374
297
266
267
269
269
274
278
280
286
288
292
290
300
308
304
306
309
187
533
342
320
323
330
333
351
366
388
416
434
432
374
313
291
290
294
300
306
308
309
316
322
321
322
326
213
488
353
337
340
345
354
368
390
419
448
464
424
345
298
297
298
300
305
309
312
317
316
318
315
334
330
330
332
316
323
463
344
337
341
348
355
372
393
424
452
462
422
339
295
291
294
296
300
300
306
314
310
312
331
327
326
328
324
224
484
346
334
340
345
353
366
385
416
441
453
421
343
294
287
288
289
292
295
300
302
305
309
306
312
312
230
481
365
321
324
326
331
344
361
388
417
439
438
367
294
277
276
278
282
286
289
292
296
300
304
307
308
307
315
321
318
321
325
188
612
355
331
334
339
344
355
374
396
425
447
450
395
318
291
293
292
296
298
301
307
311
314
316
313
326
328
325
325
325
182
545
350
332
334
338
345
356
376
399
429
445
434
358
298
282
284
285
288
291
297
300
300
302
301
318
317
313
312
315
174
525
338
322
325
330
337
349
369
397
426
444
426
349
292
283
286
288
291
298
301
306
303
311
320
316
320
323
179
542
347
333
335
340
349
360
380
406
440
456
431
355
306
294
294
300
300
303
308
315
314
314
320
328
326
324
327
261
463
380
338
336
340
346
359
372
394
425
444
446
397
319
291
286
292
296
300
305
304
303
316
318
315
317
321
198
536
351
329
331
336
343
353
376
396
432
444
432
359
300
289
290
294
295
299
305
308
307
313
320
317
321
325
196
513
348
335
336
341
346
360
379
405
432
447
418
340
290
285
287
286
290
295
300
306
306
305
305
326
320
322
321
323
201
516
341
331
331
339
346
354
379
406
430
447
423
348
294
288
285
287
287
293
295
305
309
305
307
308
184
503
342
320
320
329
334
348
371
396
423
438
414
335
284
280
279
282
285
292
292
296
300
300
298
321
316
313
314
317
184
518
340
333
333
339
347
363
381
409
433
449
434
360
302
294
296
296
300
302
307
310
314
315
309
330
326
323
324
325
205
517
343
333
337
339
348
359
378
405
432
445
423
348
296
287
289
290
295
296
302
304
312
316
317
319
325
229
502
368
335
334
337
345
358
376
400
429
448
444
373
307
291
291
293
298
302
305
307
308
310
311
315
329
325
328
330
273
456
391
335
334
337
343
354
370
394
419
439
450
403
327
299
295
298
295
296
299
303
308
314
314
315
319
192
520
355
334
335
340
344
356
374
399
421
439
418
351
297
289
290
295
296
302
305
304
306
313
316
316
320
310
337
401
336
330
331
337
349
365
384
412
433
444
395
323
291
286
288
290
296
300
301
305
310
313
314
317
302
326
414
333
328
330
336
345
357
381
409
431
439
388
315
288
295
292
293
296
297
306
303
300
321
314
313
315
314
228
466
332
324
326
333
343
354
374
400
423
436
406
331
286
286
283
286
290
297
302
308
307
307
311
236
462
353
322
322
330
333
345
360
387
412
432
417
344
287
277
276
279
281
285
283
283
291
296
296
296
282
294
385
309
302
307
309
320
335
356
385
411
415
366
294
266
269
271
274
278
283
289
296
292
317
310
309
311
312
207
482
337
328
332
337
347
360
382
410
437
451
423
350
306
304
302
303
308
309
317
321
321
326
327
329
283
418
383
336
333
340
344
353
363
388
412
428
430
373
305
283
281
284
290
293
296
300
306
311
306
313
313
196
523
345
324
328
330
339
351
368
393
420
436
422
348
295
288
287
290
293
295
300
302
313
319
315
318
321
183
545
344
329
330
334
343
357
376
403
429
449
423
344
297
293
293
295
299
300
305
310
309
316
325
320
320
325
253
476
368
332
331
337
342
350
368
391
417
433
431
384
314
292
288
292
296
299
304
305
313
316
318
318
323
235
494
365
334
336
340
345
357
374
399
424
440
433
367
307
292
292
296
301
305
307
308
313
314
316
319
321
232
511
361
332
331
335
341
354
371
394
421
443
435
368
305
290
290
293
296
299
304
306
310
312
311
333
320
320
321
317
259
469
336
329
332
338
345
357
376
403
426
438
412
337
293
291
290
290
295
298
302
307
304
308
327
315
316
319
314
265
446
336
325
333
334
346
358
380
402
426
436
405
333
293
288
288
291
296
299
303
304
313
319
317
320
321
208
484
348
334
335
343
350
364
382
408
429
443
416
341
294
290
292
296
297
303
305
308
307
306
327
320
318
321
321
217
495
341
333
336
339
348
361
381
404
428
449
413
337
293
287
288
293
294
298
301
305
305
310
313
316
263
424
375
326
329
335
340
350
368
388
418
437
434
369
304
285
288
293
292
298
302
305
313
315
315
317
322
198
527
355
331
331
338
344
357
374
402
427
441
427
351
296
286
289
291
295
296
302
303
307
306
303
326
318
316
320
317
232
477
336
328
332
337
346
357
377
405
427
440
415
338
293
289
289
291
292
299
302
304
308
309
308
328
323
322
324
316
273
445
337
330
334
339
348
362
382
407
430
438
408
334
292
287
288
292
296
301
304
307
310
315
315
317
300
338
398
331
328
333
338
348
363
388
417
439
443
385
313
286
286
288
292
296
300
305
307
310
311
308
327
322
320
322
324
186
543
346
334
336
340
348
360
378
405
432
449
428
353
302
292
292
296
298
301
305
307
315
321
316
323
322
203
527
358
333
337
341
348
360
380
407
434
448
428
355
301
291
292
293
297
303
307
309
309
310
309
328
321
320
323
317
271
448
339
332
334
340
350
363
383
410
434
446
415
338
293
287
289
292
295
298
303
306
307
305
326
320
318
320
319
203
506
339
330
334
340
347
359
380
407
434
447
416
336
295
288
290
292
292
300
304
309
308
306
319
323
320
321
324
208
532
356
332
336
339
348
359
376
401
429
441
438
371
312
293
294
295
298
304
308
308
318
320
316
319
321
200
527
352
328
330
335
342
355
375
402
430
447
425
345
293
286
287
289
293
297
301
302
306
309
312
311
313
324
320
321
323
273
443
391
330
329
331
338
351
368
387
414
436
445
399
326
291
289
292
290
293
299
304
305
308
313
311
317
305
325
400
334
331
333
340
348
365
387
414
436
440
389
318
288
286
288
294
296
303
304
308
311
311
315
318
321
246
474
367
329
331
332
341
351
368
394
422
441
438
374
305
287
288
289
293
297
301
303
307
313
317
315
317
320
188
562
348
328
330
334
342
353
372
399
429
450
429
349
295
288
290
293
293
297
301
304
310
310
306
330
321
316
320
317
275
444
339
332
336
343
350
364
383
412
433
445
413
342
295
294
292
294
300
302
308
314
321
316
318
321
201
525
352
328
329
336
342
355
375
405
433
449
422
340
293
284
286
290
295
297
302
305
308
310
308
325
322
321
325
325
185
596
351
331
333
336
343
354
371
397
424
445
438
366
300
285
290
291
292
295
300
301
309
317
315
316
318
186
511
342
326
328
335
342
357
377
409
435
450
408
330
288
283
285
287
292
295
301
305
305
311
326
313
315
318
260
448
373
328
327
330
335
347
362
385
412
434
438
376
304
279
276
275
278
284
289
293
294
293
307
309
303
308
312
189
542
343
319
321
325
333
346
365
390
418
441
425
350
293
285
282
285
288
294
300
301
307
317
314
316
319
270
431
384
333
332
337
345
355
371
395
426
448
449
381
315
297
296
299
301
305
308
314
310
329
327
323
324
327
206
550
359
339
337
342
347
360
376
409
434
449
434
361
302
292
290
291
292
298
304
308
313
311
309
332
322
321
323
318
239
454
341
329
333
339
345
359
377
405
426
440
414
337
287
282
284
288
292
297
301
302
307
306
305
320
321
318
322
323
199
560
354
331
332
336
342
353
371
397
423
439
442
365
305
288
287
290
295
297
301
303
308
311
306
325
323
323
324
326
196
525
352
339
342
347
353
365
386
410
437
457
434
356
308
293
296
296
300
306
310
311
316
323
320
323
328
280
419
383
339
337
339
348
355
368
394
422
445
446
379
310
287
287
289
291
297
299
302
305
308
310
313
308
329
325
322
324
324
197
520
343
331
332
338
344
357
374
399
426
440
424
352
298
288
285
290
290
295
298
301
305
306
312
323
316
320
322
256
468
372
333
336
336
343
353
369
390
423
440
443
381
312
291
287
288
292
298
302
305
309
313
315
320
319
263
445
372
329
331
333
340
352
367
391
420
440
439
372
302
283
284
288
291
294
299
303
305
308
310
309
316
322
320
321
324
236
529
366
331
332
336
344
353
368
390
421
439
444
390
317
292
292
293
294
300
304
306
307
311
320
317
322
320
231
462
343
335
338
340
348
363
383
413
439
451
410
334
296
292
293
295
299
303
307
309
311
312
309
330
318
320
321
314
270
446
338
328
332
336
341
357
376
401
425
441
406
330
284
281
279
283
287
291
295
298
301
300
300
321
311
311
314
312
211
483
332
323
329
335
340
353
377
400
426
443
415
338
294
289
289
291
296
300
304
307
312
313
313
319
338
323
328
329
317
310
431
343
338
339
348
355
368
392
414
438
452
421
346
300
292
295
295
304
304
309
309
308
322
323
318
320
321
197
540
350
329
332
337
344
354
372
399
425
443
429
353
296
285
286
288
292
296
300
303
306
308
309
308
331
320
317
321
316
236
483
336
327
331
336
344
358
377
403
427
442
418
340
291
284
286
290
295
294
303
302
305
305
323
316
315
316
314
269
435
333
328
330
336
344
356
379
406
430
443
409
333
290
286
283
287
292
295
298
298
307
311
308
309
309
197
521
348
320
323
324
331
342
361
390
413
431
421
347
288
272
276
279
283
287
291
292
294
303
305
308
310
271
404
382
324
325
328
334
346
360
385
414
437
443
387
314
290
290
295
297
302
304
309
314
311
332
325
323
326
327
195
539
350
336
339
340
352
363
383
406
431
446
428
361
303
293
289
292
298
298
305
306
309
310
317
315
317
308
298
420
335
329
333
338
349
360
383
409
430
441
401
323
287
285
287
291
295
300
303
303
311
316
315
317
320
175
556
344
328
332
335
342
354
374
401
428
443
425
350
295
290
292
294
296
299
307
308
312
313
314
324
323
324
327
257
478
376
335
335
340
346
355
375
392
421
436
443
393
322
294
293
292
292
299
305
303
312
315
312
314
319
202
515
347
325
327
328
338
350
366
390
415
433
419
345
287
276
276
281
284
290
292
295
298
301
301
299
318
315
312
316
318
182
530
340
326
330
336
343
355
373
397
423
436
428
360
302
288
290
293
296
299
304
308
311
310
309
330
326
323
325
324
225
496
342
333
337
342
350
362
384
411
434
445
424
346
299
290
293
294
297
301
302
308
313
317
318
320
320
204
480
347
331
335
338
347
359
377
404
428
443
415
336
289
283
284
289
292
297
300
302
303
302
302
316
317
314
317
320
178
558
344
327
330
335
342
353
368
398
422
442
437
370
302
291
291
292
299
301
306
309
309
313
322
318
325
292
380
406
344
336
344
347
357
376
396
425
445
450
399
324
299
293
297
300
304
306
311
309
317
318
316
320
323
223
503
362
330
331
337
343
352
370
395
421
440
437
369
302
283
283
286
288
294
297
300
304
304
302
318
316
312
317
319
177
573
348
326
328
332
340
352
369
395
421
440
436
366
296
286
286
287
291
296
298
303
306
302
324
319
320
322
322
195
506
346
333
335
341
348
362
382
409
435
447
421
347
298
289
289
294
299
303
308
313
316
315
319
320
223
501
364
333
332
338
345
356
373
400
428
447
433
358
299
287
287
291
295
298
301
303
305
306
305
324
322
319
322
324
174
582
348
329
331
336
344
355
372
398
424
441
432
362
298
286
287
288
294
294
299
306
308
303
320
321
317
319
324
187
538
350
330
332
339
344
358
375
405
429
444
429
357
299
286
286
290
292
297
299
300
307
308
311
316
318
252
455
372
330
329
334
340
351
366
391
420
442
439
375
304
285
285
287
291
296
301
303
307
308
309
307
323
322
320
321
324
173
561
346
332
334
339
347
359
378
400
429
443
432
361
302
287
289
292
295
300
305
313
312
311
316
327
322
324
327
260
462
375
335
335
337
344
356
367
394
420
437
443
386
323
294
286
292
293
299
304
305
307
312
314
313
319
294
358
390
334
330
333
340
349
362
387
411
435
443
389
318
287
285
287
292
297
298
303
303
309
311
313
314
319
234
494
358
326
329
335
336
350
366
391
420
436
437
370
307
287
282
288
292
298
299
304
306
313
308
313
312
244
474
360
330
329
329
337
351
368
400
421
441
433
376
316
290
298
298
310
307
321
326
337
340
320
328
303
434
367
329
326
331
348
355
369
392
416
432
431
368
309
289
279
284
288
297
275
293
283
296
296
302
272
257
386
381
325
287
318
324
330
362
378
402
435
447
392
308
301
314
295
286
339
342
283
293
308
331
302
338
325
249
471
366
324
321
326
335
332
345
372
408
406
424
356
297
273
279
289
278
284
284
290
296
309
308
305
303
305
198
539
339
317
320
322
332
342
363
392
410
428
422
353
294
283
285
286
287
290
294
298
296
313
306
304
309
305
261
437
326
323
322
331
335
351
381
397
421
432
398
325
289
286
288
292
294
298
307
311
310
313
316
243
474
359
325
326
330
337
345
361
386
410
428
421
356
301
289
291
293
297
301
301
308
320
312
314
317
289
370
389
328
328
331
337
345
359
380
405
422
428
380
314
291
292
294
298
301
307
308
311
328
318
319
321
312
307
419
336
333
335
341
350
362
381
402
422
429
394
326
295
293
296
299
303
306
310
312
312
318
333
322
325
327
282
434
384
338
338
342
348
356
370
390
411
427
434
394
326
299
300
303
307
311
314
318
319
320
321
340
327
332
331
314
342
413
344
338
343
349
354
367
386
406
423
428
403
337
301
297
298
302
301
306
309
308
309
319
320
318
319
315
266
421
332
323
324
327
335
348
366
388
406
414
387
320
280
274
278
281
284
288
290
292
293
305
307
304
309
310
185
521
333
320
323
328
337
350
366
392
415
430
416
348
295
287
290
293
295
298
303
307
310
308
326
322
317
320
323
192
544
346
332
334
340
347
360
377
401
424
438
428
361
304
295
296
298
301
304
308
309
311
313
314
315
315
314
334
322
321
321
307
321
418
329
326
329
333
341
353
371
394
413
424
407
340
291
283
285
288
293
294
297
300
302
305
306
307
308
307
317
318
315
318
320
192
550
345
327
330
334
341
352
366
387
412
426
428
378
313
290
290
292
296
300
304
307
309
311
314
315
314
324
326
323
325
327
208
549
353
334
336
341
348
357
373
394
416
432
433
380
317
297
297
300
304
308
311
313
316
317
315
321
330
325
326
329
258
485
372
336
336
340
345
355
367
387
410
426
430
386
319
292
291
294
297
299
303
305
306
306
308
306
312
319
314
316
319
231
500
355
323
324
327
334
343
356
375
397
411
417
376
310
286
285
288
293
295
300
303
307
309
309
311
308
323
323
320
323
325
218
491
345
332
336
340
347
356
372
394
413
425
419
361
307
295
297
300
304
308
311
314
314
316
318
319
320
318
324
331
328
329
331
250
509
370
339
339
343
347
355
371
388
408
421
428
398
333
303
298
299
302
306
310
312
313
316
318
320
317
317
331
330
326
330
331
223
492
350
336
338
342
351
361
376
395
415
427
423
368
309
295
295
297
301
306
308
311
312
314
313
317
321
321
325
325
216
542
355
333
334
337
342
351
365
387
412
429
427
371
309
292
291
294
296
300
304
307
311
313
314
317
315
319
329
325
326
330
278
451
381
336
334
338
343
353
362
380
404
421
433
400
332
298
291
294
293
301
305
308
311
312
312
318
321
322
324
326
230
513
359
335
337
340
346
357
374
394
415
432
428
375
311
289
290
295
296
301
305
305
307
309
311
311
310
326
319
321
322
288
396
384
330
329
331
335
345
358
377
401
423
431
401
330
292
288
290
292
297
300
304
307
310
313
313
315
315
317
330
326
326
329
289
425
390
336
334
337
342
349
362
382
407
425
435
408
338
300
298
297
299
301
308
309
313
315
313
316
311
325
326
322
327
323
215
496
343
330
329
336
338
351
364
387
408
421
411
348
288
270
271
271
275
277
283
281
283
283
286
290
288
288
284
216
423
304
295
300
301
311
320
339
369
393
413
382
310
263
255
268
262
265
274
281
279
286
289
292
293
303
301
303
307
223
498
352
319
319
323
331
342
355
378
405
427
437
385
313
291
292
296
299
303
306
313
317
318
315
331
331
328
332
336
217
557
363
342
346
352
355
366
382
407
432
451
446
381
318
302
301
306
305
312
313
319
320
327
329
328
330
333
218
507
354
341
338
347
351
362
378
404
430
447
426
353
300
293
292
296
297
303
305
309
310
313
318
320
319
322
324
194
542
343
328
329
332
340
349
366
391
419
437
424
354
297
289
290
292
295
298
302
305
310
312
312
309
325
321
323
323
313
311
438
336
329
333
338
344
358
374
399
425
437
410
340
298
290
294
291
295
297
304
307
303
312
313
316
320
305
337
398
334
331
333
339
346
358
376
401
426
433
394
324
290
286
287
293
297
300
305
305
307
312
318
315
320
314
280
435
332
326
331
333
343
357
374
396
424
435
407
332
291
288
287
290
295
302
304
307
311
314
316
315
321
298
368
394
333
329
332
338
346
361
381
410
434
441
395
321
293
288
292
294
296
305
301
316
317
321
320
329
328
208
548
347
336
334
344
346
361
378
405
430
448
427
353
298
292
291
292
294
297
298
300
306
307
314
313
306
306
306
192
516
326
307
304
306
311
322
336
359
387
405
405
336
275
260
260
261
264
266
271
273
278
281
285
295
292
293
298
233
437
348
311
311
318
325
338
354
377
406
429
433
380
308
280
279
282
287
291
295
297
304
306
307
309
310
317
319
320
323
286
394
402
330
326
329
334
342
357
376
403
428
441
404
327
282
278
283
287
288
293
299
302
305
308
306
314
322
322
322
326
183
543
346
333
337
342
349
363
382
411
437
454
440
366
300
297
296
294
297
300
305
311
314
316
315
317
322
332
329
328
331
327
226
495
353
334
339
344
357
366
387
411
438
453
443
371
306
292
294
297
300
306
309
312
309
318
317
316
320
321
213
534
364
328
329
333
340
349
367
390
419
439
439
367
293
275
278
278
281
284
287
292
296
299
301
302
302
317
313
313
316
259
445
389
322
323
326
335
344
360
383
408
432
448
406
328
283
282
283
287
295
296
304
305
307
306
319
325
318
324
326
197
515
349
332
338
343
351
363
381
412
434
450
436
367
302
291
292
294
299
304
306
311
310
316
319
317
320
317
242
473
338
327
329
332
341
353
372
400
425
441
408
322
270
264
265
266
267
269
272
274
276
276
278
277
272
293
285
284
285
282
166
493
300
291
293
299
308
321
341
368
399
415
406
337
270
257
261
264
269
277
281
288
293
295
298
308
313
313
317
320
176
569
354
330
337
341
348
364
381
407
433
451
449
383
315
296
295
295
305
306
312
313
320
316
324
325
328
265
461
386
338
339
344
349
360
377
400
431
453
460
401
320
293
291
293
298
303
307
310
312
314
316
316
320
323
325
327
269
457
398
336
335
337
344
354
367
390
419
441
449
410
327
286
284
285
286
288
292
295
299
298
304
308
305
307
309
143
588
332
313
312
315
324
333
350
378
405
425
416
335
270
259
262
260
267
272
278
280
283
288
295
294
298
302
175
487
331
313
318
325
333
348
371
396
423
441
424
344
289
281
285
287
293
297
304
305
312
312
316
320
326
243
510
382
336
336
340
349
359
376
400
428
451
456
395
316
293
292
294
298
303
308
313
317
320
315
322
328
330
330
331
235
544
383
337
341
342
348
361
377
399
427
446
456
406
331
292
292
294
297
300
305
309
309
312
319
320
322
319
213
487
344
333
335
342
348
361
381
410
434
449
423
339
288
282
284
288
293
297
301
305
307
310
307
316
322
320
320
320
185
537
339
327
327
335
339
355
373
400
423
441
427
355
293
281
279
285
287
293
298
301
307
306
306
308
309
205
502
351
323
324
327
337
349
366
390
414
432
427
364
304
282
286
289
293
302
304
307
307
315
317
317
319
324
198
558
356
332
336
337
350
362
376
404
434
454
446
376
306
289
289
290
296
300
304
305
306
313
317
314
319
317
202
504
337
327
328
333
341
355
375
405
433
450
421
336
287
283
283
285
287
291
296
300
301
298
309
311
308
310
309
150
551
326
310
312
314
320
329
349
371
398
415
398
316
255
244
243
244
248
250
253
259
261
259
259
263
272
268
271
274
228
367
346
286
284
291
298
311
326
348
378
401
414
379
304
265
261
268
273
280
288
294
298
305
306
312
317
323
249
494
385
341
342
346
354
366
384
412
442
467
471
406
328
304
307
308
311
315
320
325
329
332
335
336
339
340
341
338
345
352
349
350
352
243
605
385
352
354
359
363
371
383
405
429
450
459
429
348
302
298
298
300
305
308
311
317
317
318
319
322
323
324
320
321
335
331
329
330
315
330
439
340
337
337
341
350
361
379
404
426
440
430
360
298
283
285
288
292
295
299
301
305
308
309
308
306
324
322
320
321
320
206
522
338
330
331
338
344
354
372
398
425
443
433
359
293
280
282
285
287
294
299
302
306
309
308
307
322
319
320
322
276
428
398
335
334
338
342
353
368
389
416
440
449
414
336
293
287
289
293
298
303
309
310
315
315
317
320
320
236
494
372
329
331
336
343
354
369
393
420
444
450
391
311
285
284
288
293
295
301
302
305
308
310
310
310
321
320
319
322
240
520
378
329
329
333
338
347
362
384
411
435
447
409
327
285
283
286
290
294
300
303
307
306
305
317
319
319
319
312
275
454
338
326
330
337
345
357
379
405
432
444
419
342
292
285
285
288
292
295
300
304
308
313
312
316
316
241
449
341
330
333
339
347
361
381
408
436
451
422
339
289
284
285
289
294
301
304
305
308
309
309
318
321
321
325
285
411
418
333
332
335
342
349
364
383
411
440
452
414
331
290
284
287
289
291
296
300
305
305
304
314
316
317
320
319
196
498
344
328
331
338
346
359
380
401
427
445
432
362
302
287
287
289
295
300
304
307
309
313
314
317
293
350
404
330
330
331
339
347
363
385
418
443
454
399
316
283
283
285
289
293
298
303
305
307
310
310
324
321
323
325
281
429
410
335
333
336
341
350
364
384
414
439
453
414
329
287
286
288
290
294
296
302
305
306
308
323
317
317
321
299
346
420
332
330
333
340
347
364
384
409
436
449
407
329
289
284
286
289
293
296
299
304
310
315
313
318
318
188
529
347
327
329
335
344
355
375
401
429
449
437
360
296
285
287
290
295
300
303
306
308
311
313
313
322
328
323
327
329
220
578
368
333
334
337
342
352
366
391
420
442
451
400
318
283
281
284
285
287
292
296
298
300
303
302
299
312
314
313
314
315
178
588
346
321
320
325
332
344
361
384
412
435
438
381
308
283
282
282
287
286
294
298
302
304
303
313
319
315
318
322
200
553
360
329
332
338
346
358
374
398
428
450
452
390
314
289
289
293
296
300
303
307
310
312
312
311
329
325
324
325
318
252
491
337
330
334
340
349
361
381
409
437
455
435
354
294
288
291
293
295
303
306
311
313
315
318
315
318
329
327
327
332
277
448
397
339
337
341
348
357
371
391
418
439
451
417
340
294
285
290
292
295
300
303
307
307
315
319
315
317
319
197
493
344
329
332
335
345
357
375
402
431
448
430
350
289
280
281
284
288
295
298
301
303
304
306
309
310
308
324
324
322
323
325
167
583
342
330
331
337
345
357
375
397
424
442
444
380
306
284
285
287
291
292
297
304
303
303
308
311
308
314
311
244
441
330
321
324
326
335
346
365
389
418
435
409
332
277
271
272
273
279
285
288
290
292
296
298
297
315
309
311
313
292
328
429
328
324
329
336
345
360
381
409
434
450
430
347
291
286
289
293
298
299
306
311
313
312
313
331
325
330
331
320
297
460
345
338
341
345
355
371
387
416
442
458
435
354
301
291
295
296
301
305
309
311
312
314
321
321
325
309
298
450
337
331
332
337
345
356
378
404
432
443
403
314
268
263
267
265
267
269
273
275
276
275
273
276
289
284
287
284
258
323
373
296
292
297
301
317
328
346
368
393
403
389
318
272
266
262
272
276
282
288
295
296
301
304
309
264
410
377
327
328
332
343
353
369
395
424
448
460
403
328
299
297
301
305
309
313
317
319
324
328
328
325
343
339
337
339
341
196
577
358
346
348
353
360
369
387
409
433
450
447
385
318
297
298
299
303
308
310
314
314
319
326
320
325
328
199
515
352
335
335
342
347
353
377
402
426
446
426
363
303
298
294
299
303
308
311
314
315
319
320
323
327
330
248
502
374
339
341
345
345
358
373
396
421
440
448
395
319
292
290
295
294
297
305
308
312
314
315
313
315
326
322
324
328
270
469
389
334
331
334
340
348
360
384
408
432
445
411
335
292
291
289
294
298
300
304
304
309
318
312
321
319
208
483
340
328
330
335
344
352
373
401
426
443
421
344
290
280
282
286
290
296
297
301
303
305
312
316
316
318
315
262
451
338
329
332
338
346
358
378
401
426
442
424
348
294
285
287
291
295
298
302
306
308
311
312
311
325
326
323
324
327
183
589
349
333
334
337
343
352
369
395
421
438
437
378
308
285
285
287
289
291
