324
341
374
422
453
453
380
289
269
274
272
281
287
295
299
300
305
302
326
324
321
325
330
167
593
355
337
344
348
357
371
397
430
474
491
465
368
301
291
292
295
298
301
302
302
300
313
314
304
306
308
140
607
335
306
309
317
324
337
360
396
441
461
437
335
273
268
271
274
280
288
288
292
297
293
294
322
308
309
312
279
384
402
319
318
320
328
335
352
376
417
446
452
401
306
265
263
267
269
272
276
273
276
280
289
276
275
277
172
502
310
274
274
280
289
300
320
350
394
420
414
332
252
231
238
243
247
255
268
259
284
282
282
283
293
127
621
317
304
306
308
321
336
360
397
446
469
452
350
288
285
286
289
295
303
309
319
315
315
339
339
345
329
268
528
418
351
352
362
374
383
398
430
477
500
488
435
343
328
333
319
331
361
332
317
347
354
339
343
348
251
601
379
323
344
341
346
355
374
414
468
465
459
365
287
267
283
270
274
274
281
277
278
277
299
287
289
294
248
394
397
297
295
298
307
317
331
362
398
428
434
378
288
256
255
262
264
269
271
272
281
292
284
288
294
177
525
338
300
305
310
318
333
353
384
426
447
437
360
287
276
279
286
292
295
298
300
323
310
310
314
279
399
402
327
326
332
343
353
375
405
449
483
493
427
333
306
308
311
314
315
317
324
330
317
320
320
178
638
335
317
316
319
326
336
356
387
429
451
435
341
270
264
266
269
270
275
277
278
301
292
293
298
269
363
406
307
304
312
318
329
346
374
414
443
447
387
297
272
273
275
280
287
291
294
291
304
309
304
308
313
153
619
341
315
316
325
332
346
366
398
436
453
438
355
288
278
282
287
292
298
301
301
303
305
309
320
314
318
323
202
573
368
327
331
335
344
356
374
404
439
458
463
401
317
294
298
302
306
309
310
307
317
323
318
317
321
171
528
335
319
322
325
334
349
372
407
441
455
418
323
269
269
272
278
280
284
288
291
289
299
301
302
305
308
135
607
332
311
311
321
330
344
364
399
437
452
441
353
284
279
282
289
293
293
299
299
303
304
319
320
318
325
329
163
590
346
329
336
341
353
369
389
421
454
471
458
372
307
297
305
308
310
313
314
313
314
315
313
313
237
479
374
316
316
321
330
341
358
388
427
454
458
383
294
270
274
280
285
288
291
294
297
296
303
311
305
308
313
157
658
331
312
313
317
329
339
357
386
424
444
442
366
285
267
267
270
275
281
282
292
296
294
298
302
126
593
329
315
313
320
329
342
365
400
438
452
431
341
286
289
294
298
301
309
313
315
319
320
332
341
334
338
343
184
617
375
350
352
361
368
380
400
427
457
474
472
408
315
301
305
303
308
309
305
312
313
309
309
311
145
564
331
311
307
312
318
330
351
385
422
438
415
318
250
245
250
253
256
261
263
265
265
275
276
277
280
285
101
580
311
293
295
302
312
326
348
382
420
437
425
340
271
264
270
274
279
285
288
293
293
296
298
317
314
317
323
264
463
405
332
333
341
345
359
379
405
446
473
482
434
340
306
304
305
314
318
322
327
327
333
333
335
283
434
407
335
334
336
342
352
366
396
431
458
459
387
295
267
271
273
275
280
281
283
285
287
289
291
287
306
303
302
303
284
327
451
313
309
314
321
333
348
371
411
440
447
432
343
287
283
286
291
300
305
309
314
317
317
338
330
335
338
285
464
414
349
349
355
360
370
388
414
449
476
482
426
326
287
286
284
289
292
292
291
291
293
297
296
300
274
322
421
304
303
304
311
318
335
359
399
434
442
393
295
257
260
265
266
269
278
279
287
288
288
294
290
311
312
311
316
299
319
464
330
327
332
341
352
367
389
422
452
471
451
368
305
300
300
302
310
315
314
316
322
325
324
327
317
268
463
332
325
331
337
346
364
386
422
459
472
433
328
277
277
282
287
290
291
294
295
296
300
300
300
320
315
314
317
263
466
412
322
322
326
332
341
354
381
415
445
458
429
331
283
280
280
285
288
293
296
298
299
296
316
314
311
312
295
302
455
319
317
320
327
336
352
373
409
442
455
426
330
278
275
279
281
286
291
295
298
301
303
307
307
306
324
321
322
320
292
373
438
327
324
328
337
345
359
383
415
447
458
444
357
292
285
287
288
294
299
300
304
306
305
314
319
315
318
321
133
650
338
322
324
330
339
348
365
393
427
448
447
373
290
274
276
280
284
292
294
294
303
302
306
310
314
174
547
350
323
324
328
338
353
369
397
430
450
451
379
303
287
293
298
305
302
304
313
310
314
315
317
244
484
375
322
324
328
334
345
360
383
420
438
446
393
302
272
274
278
280
282
282
281
290
291
289
292
284
247
439
307
300
305
308
321
334
358
395
429
442
411
318
277
274
276
283
286
290
289
297
306
309
312
307
240
488
329
322
328
338
346
364
383
418
453
463
432
342
299
299
305
309
314
317
327
328
329
331
336
185
561
365
342
345
351
356
369
389
421
450
465
451
359
301
295
298
297
301
298
301
304
304
303
308
295
274
441
314
304
308
311
319
331
354
386
423
431
391
299
259
260
263
266
271
273
277
280
283
290
294
247
401
392
312
310
316
323
333
352
378
417
440
450
394
307
283
291
292
296
304
302
314
320
322
324
327
225
509
349
338
342
353
359
372
394
431
465
476
448
350
302
301
303
306
309
312
306
321
318
315
316
315
232
487
329
319
323
329
334
350
372
406
435
448
414
318
271
267
273
270
276
278
281
277
297
295
290
293
295
129
588
319
300
305
305
315
331
354
388
423
445
435
352
285
278
280
286
293
298
294
310
316
312
313
319
204
552
360
324
325
329
337
344
364
394
426
451
450
372
290
265
267
270
274
279
276
289
297
285
287
291
184
513
338
294
294
303
310
320
340
368
408
430
433
359
275
261
260
266
271
277
281
279
305
297
298
300
303
145
554
323
312
317
322
332
347
369
406
441
458
431
339
285
283
288
295
298
306
310
314
313
337
329
331
332
294
393
432
338
337
341
349
357
370
394
425
458
467
432
345
310
309
309
316
331
333
345
363
349
349
355
237
602
383
355
358
362
372
378
397
421
455
474
465
384
306
285
289
291
297
295
301
321
296
294
295
215
488
332
289
290
294
302
312
328
356
393
419
424
353
267
249
249
255
257
258
275
278
266
269
273
134
584
303
287
289
298
311
322
345
380
420
439
429
341
275
271
273
276
281
287
294
317
304
304
310
295
321
442
322
321
327
334
342
359
383
419
449
458
410
316
287
288
290
294
298
300
304
312
308
319
330
324
328
327
213
577
370
336
336
342
352
362
381
410
444
463
468
417
327
298
301
305
309
313
315
320
336
325
327
327
278
446
406
331
330
334
340
350
361
386
424
448
458
392
300
276
272
271
273
276
278
281
280
289
294
291
293
296
140
600
323
295
301
307
313
326
346
377
411
430
429
359
285
273
278
280
287
297
300
303
306
308
328
322
326
334
301
395
431
344
344
347
357
366
382
403
440
465
476
445
353
308
307
309
313
317
318
315
328
330
319
322
324
164
575
347
325
326
328
337
348
368
400
431
449
434
347
282
276
280
280
284
289
293
289
312
305
302
306
307
163
537
324
309
309
318
328
343
361
391
427
446
425
338
285
283
286
292
301
309
301
320
334
328
337
339
181
595
367
335
341
347
352
365
379
409
450
473
467
389
312
295
302
299
305
306
305
309
317
313
316
314
176
578
347
316
315
319
322
337
354
380
419
436
433
354
275
260
265
275
277
276
281
312
297
294
299
289
269
452
313
315
313
318
330
351
373
411
447
456
411
314
278
275
280
288
286
283
314
306
301
302
308
150
538
327
312
316
323
332
347
371
404
431
453
429
329
275
278
278
285
280
300
308
298
300
301
158
587
341
305
311
317
325
339
357
386
417
440
436
352
277
272
274
288
285
283
311
313
310
313
320
147
600
350
322
324
333
339
354
375
402
432
447
438
356
288
281
287
289
291
292
291
309
296
292
296
230
425
364
296
293
299
305
315
329
354
386
408
413
353
262
237
240
243
248
254
253
266
272
269
273
271
135
500
293
284
292
301
311
328
352
387
418
429
399
303
262
265
269
278
291
291
296
299
301
324
320
320
326
291
423
443
347
349
357
368
377
395
421
457
482
490
458
365
331
326
332
335
338
339
347
348
349
348
350
205
617
381
345
344
349
356
365
383
410
444
453
442
355
283
273
277
280
282
284
283
283
287
289
288
299
301
298
300
304
109
612
324
310
310
317
326
339
359
388
421
434
433
363
290
279
287
289
295
299
303
306
315
320
326
291
387
421
343
340
344
350
362
375
398
430
455
456
394
302
271
272
273
274
274
274
274
268
274
272
271
273
271
94
519
284
268
268
272
277
288
309
337
370
385
377
292
225
224
231
237
246
253
258
266
270
283
286
295
270
343
421
321
324
330
341
352
372
398
431
459
474
427
344
308
312
316
320
329
329
326
337
342
337
342
331
281
478
342
334
335
337
347
360
382
414
438
450
416
317
271
268
271
274
280
283
285
285
295
299
297
301
305
133
577
326
317
322
327
336
352
369
406
438
455
435
354
295
289
294
301
305
313
316
317
326
328
331
338
338
183
571
367
346
349
355
369
378
398
427
458
474
466
384
316
310
312
318
323
326
325
330
331
327
331
329
184
609
358
327
327
327
335
341
359
388
422
439
432
351
274
263
265
270
276
280
283
280
290
295
289
292
296
118
591
314
301
301
308
318
330
350
382
415
430
418
333
271
264
265
267
272
276
281
280
288
299
291
294
297
185
549
342
302
304
308
315
327
345
370
406
428
432
371
287
270
270
277
279
286
290
288
314
304
306
310
312
173
521
338
323
328
335
343
355
373
407
432
448
431
346
288
281
287
290
297
296
298
324
315
314
317
304
314
430
327
324
325
333
341
355
377
410
435
445
410
319
280
282
284
291
294
294
317
308
303
304
307
174
522
327
315
318
327
333
348
370
403
433
448
423
327
278
278
285
288
290
296
319
304
302
307
296
282
449
321
317
324
331
344
360
388
425
454
467
418
322
297
291
299
300
301
316
321
314
314
315
208
544
354
318
320
326
333
344
367
392
427
449
450
368
304
293
296
295
300
303
324
317
322
322
300
245
454
337
330
332
350
354
376
398
430
459
474
432
341
303
303
306
308
306
335
334
292
307
322
293
327
437
324
315
315
327
325
344
373
404
431
440
374
284
260
270
268
271
278
282
280
289
301
290
293
294
196
539
349
304
305
312
319
328
345
374
412
431
431
368
295
275
278
278
284
289
291
292
303
323
313
319
323
244
504
381
332
333
339
345
357
372
402
437
461
466
404
320
296
296
300
303
304
304
312
324
310
313
314
224
517
358
315
315
318
325
337
355
387
428
454
457
377
287
271
273
272
275
279
286
304
290
289
292
236
457
365
308
309
315
320
337
352
381
423
452
449
373
293
278
282
287
293
300
299
325
318
316
318
322
178
544
346
332
335
344
354
365
388
420
452
467
442
348
291
286
287
289
293
290
312
302
292
292
293
137
540
299
280
315
284
297
295
332
380
396
409
390
270
224
215
225
235
242
246
273
265
250
265
225
329
393
299
278
294
315
308
339
353
405
443
435
365
287
267
271
281
286
284
314
310
299
320
316
131
616
348
333
338
349
360
366
395
422
457
471
450
364
306
304
313
308
308
338
329
325
329
325
268
477
342
341
342
351
359
375
402
436
461
470
423
330
305
307
314
312
320
344
327
329
331
300
366
414
335
330
333
337
343
358
384
412
434
435
375
283
262
260
263
265
264
279
278
269
271
270
104
540
287
268
267
271
280
292
312
346
377
389
366
276
231
230
234
239
240
252
267
259
266
269
187
474
336
289
293
303
313
327
349
376
415
438
437
363
298
288
295
300
306
307
329
334
330
335
340
194
560
370
356
361
368
379
393
413
444
470
481
458
368
316
314
319
323
326
322
340
340
328
330
332
188
610
358
333
335
337
344
356
374
402
432
446
431
345
281
277
280
283
285
286
291
313
297
300
300
260
394
392
310
309
313
321
330
348
374
408
431
435
374
294
275
277
283
287
292
294
291
317
306
311
313
313
206
516
335
328
332
339
348
362
387
417
448
460
435
344
305
302
304
310
317
320
323
326
348
334
334
335
299
397
421
343
341
346
352
361
375
396
430
448
456
408
319
287
288
292
295
296
298
294
297
318
300
304
306
250
434
380
310
311
312
320
329
346
371
405
428
434
380
297
275
277
281
286
290
292
294
300
317
305
308
309
233
487
373
320
321
324
332
340
358
387
421
442
444
380
301
282
284
290
290
296
299
303
306
314
325
317
318
322
184
585
352
326
323
333
342
355
373
399
431
454
446
367
286
272
271
275
278
282
283
282
296
299
292
293
293
127
571
316
290
291
293
299
310
328
360
394
410
394
307
239
233
233
239
242
247
247
272
265
261
267
271
119
508
293
284
290
300
310
324
350
387
423
438
406
314
273
274
279
287
294
300
304
316
333
325
328
337
229
564
385
348
352
356
366
378
397
427
462
483
484
409
335
320
318
324
326
331
334
358
338
338
339
307
378
425
341
337
342
348
354
368
395
429
453
455
392
304
280
273
282
293
294
294
289
311
306
300
300
303
144
552
324
310
315
320
327
342
365
393
425
442
420
334
284
284
287
292
301
302
304
330
316
318
326
319
288
458
345
337
343
350
357
373
399
433
463
473
429
340
302
302
307
312
315
314
326
334
319
319
318
186
594
344
317
318
323
332
342
363
393
429
448
442
352
282
272
273
278
281
283
303
301
292
296
298
135
608
321
304
305
310
319
329
348
381
420
440
423
325
270
269
270
273
282
287
286
314
307
304
309
307
197
504
332
322
329
334
342
359
384
418
446
463
432
337
297
296
297
303
310
311
318
339
324
327
329
277
447
399
336
335
340
344
355
371
397
431
456
458
394
306
282
283
285
288
292
294
296
297
293
314
308
304
306
308
152
549
325
308
310
317
325
338
359
387
422
436
423
341
280
274
280
282
285
291
293
294
313
311
311
315
318
183
527
340
331
330
338
346
360
380
414
448
460
437
348
296
291
294
299
307
309
312
312
308
326
321
317
323
320
228
492
336
326
328
336
341
355
375
406
435
446
425
333
282
280
284
287
293
295
298
297
300
295
305
312
309
313
317
126
652
339
319
319
327
335
346
366
397
434
454
451
370
288
277
280
281
288
294
300
306
302
315
324
321
325
328
179
617
367
337
342
347
358
367
388
416
454
476
472
398
315
300
300
305
312
315
316
317
317
320
334
324
325
325
220
545
371
327
326
332
337
346
363
388
423
448
453
390
300
272
277
277
283
285
288
292
292
294
293
310
309
305
309
312
158
557
329
314
318
324
334
345
364
399
430
449
439
352
287
280
280
285
290
296
298
303
304
306
321
316
320
322
231
522
384
332
332
335
341
351
368
395
431
458
467
407
316
285
287
287
295
299
301
301
299
314
317
311
314
315
152
591
340
317
321
324
331
345
362
392
428
447
442
361
282
271
273
277
282
287
290
292
291
308
306
304
308
309
150
556
327
316
318
323
333
347
365
402
433
450
436
348
282
278
280
286
292
298
302
303
306
309
322
316
323
324
227
528
383
328
335
337
342
356
371
398
434
458
465
411
322
291
292
295
301
310
309
307
318
321
314
320
323
160
570
349
327
330
333
341
351
370
405
437
455
440
349
279
273
274
276
282
286
289
290
295
300
300
305
306
165
534
326
314
319
325
331
346
366
400
435
451
429
338
284
280
283
290
293
299
299
308
312
316
320
323
161
583
349
328
330
337
345
357
378
410
441
464
450
366
297
289
293
297
299
302
304
312
317
314
317
318
169
539
340
325
327
332
338
351
373
407
440
453
429
334
279
276
280
284
289
294
294
297
298
305
309
303
259
435
406
322
323
325
328
337
352
375
412
437
441
392
307
283
285
285
289
294
300
301
306
314
313
318
319
223
484
341
324
333
340
347
359
378
408
436
449
424
344
289
302
298
302
308
309
309
316
317
317
319
303
313
437
330
327
332
331
341
355
375
407
433
442
408
320
288
289
291
295
298
302
303
309
314
313
314
316
185
519
335
322
322
324
330
343
357
383
409
426
410
327
274
265
266
271
276
274
279
278
278
281
279
173
500
318
278
279
279
286
295
309
333
376
391
391
313
240
224
230
231
240
245
248
255
264
263
271
264
244
419
294
291
296
305
315
331
356
393
423
437
398
310
280
281
287
291
298
304
305
318
321
324
332
333
182
608
364
342
346
350
356
372
391
419
453
474
463
386
318
312
312
319
325
330
330
337
343
339
341
332
324
462
357
349
353
355
362
375
397
430
453
462
420
335
300
300
302
305
311
312
313
309
330
325
320
321
322
173
559
339
329
326
336
341
355
374
402
433
447
428
349
295
287
288
293
296
298
311
322
310
314
313
216
515
365
324
325
329
337
347
366
394
430
450
450
375
298
282
286
291
296
298
296
316
316
306
312
311
150
567
335
318
321
328
337
350
373
403
436
453
437
343
283
276
280
284
286
289
292
318
304
305
307
294
273
462
320
316
320
326
335
351
379
414
442
451
407
314
279
287
286
292
297
297
309
325
312
315
319
228
500
379
327
329
335
344
353
372
398
434
454
458
389
310
292
293
298
302
304
304
328
311
312
314
299
300
436
323
321
324
330
337
355
378
414
440
449
399
306
275
276
281
285
289
293
291
306
310
303
307
309
145
629
341
317
318
324
333
343
365
392
427
447
440
359
294
287
286
291
295
298
301
310
323
313
315
319
227
500
375
325
329
331
339
350
369
398
430
452
456
390
305
289
291
297
298
304
305
305
302
328
316
315
319
313
225
496
333
322
327
333
341
353
377
410
439
450
427
337
284
284
286
290
294
298
301
301
309
322
314
314
317
219
541
372
323
325
331
334
346
361
389
420
442
446
387
303
285
286
288
295
298
301
304
305
310
327
318
319
321
236
498
381
328
330
336
341
354
369
395
428
451
459
409
322
288
289
294
296
300
303
303
299
323
314
313
313
313
175
528
333
318
321
327
336
349
369
400
433
445
427
338
282
280
283
288
291
294
296
297
305
319
308
312
315
205
561
366
324
327
324
335
345
364
385
423
443
447
387
302
285
285
289
293
300
301
299
323
317
315
316
317
169
535
346
327
330
338
345
357
377
413
441
455
443
357
292
288
291
295
302
305
301
316
325
314
316
318
196
554
361
322
321
327
334
348
363
393
428
448
445
374
296
282
282
283
282
294
305
301
318
321
314
320
321
169
628
352
326
327
331
336
351
368
393
426
444
441
365
295
287
286
292
300
301
300
313
327
318
319
320
241
492
374
330
331
337
341
353
371
393
432
450
458
399
316
293
297
302
304
303
306
331
321
316
318
318
191
515
337
320
323
327
338
351
374
405
440
454
422
325
278
279
281
285
288
286
307
308
298
299
301
151
600
330
306
310
316
324
334
355
390
423
443
432
342
279
276
277
280
284
290
290
307
314
306
310
311
175
591
351
322
322
327
334
348
365
396
430
450
445
364
297
289
290
291
296
300
304
305
308
323
315
318
321
265
442
398
326
325
333
337
346
362
392
422
448
457
402
314
284
282
285
285
293
292
290
304
307
301
300
302
140
581
332
306
306
310
317
330
349
380
416
435
425
335
262
250
254
264
265
268
269
293
280
281
286
256
340
406
300
299
304
314
328
345
374
418
445
455
393
299
272
277
284
285
282
302
313
305
306
310
184
569
360
323
325
333
338
352
373
403
441
459
450
366
296
289
290
294
299
301
309
324
315
318
322
237
493
379
332
336
337
343
352
375
404
436
455
458
392
310
291
294
298
303
301
313
331
315
317
318
209
537
361
320
324
329
336
345
360
391
422
443
442
372
294
287
289
291
294
297
298
325
311
305
311
301
267
454
329
321
325
334
340
355
382
414
438
448
414
322
286
288
294
296
299
301
328
316
312
316
313
241
473
335
320
326
334
341
355
376
410
434
448
414
326
289
292
291
298
303
303
327
321
312
317
318
168
558
340
321
326
333
341
354
372
402
432
443
421
337
281
280
285
287
287
291
314
297
296
297
268
340
390
299
302
302
307
312
330
354
388
410
417
364
275
249
251
257
256
261
287
276
272
272
272
179
470
290
292
290
294
310
325
349
386
412
428
386
294
265
269
273
276
285
311
294
294
299
259
408
383
312
314
321
329
340
358
389
421
443
446
380
301
287
289
295
294
312
320
310
312
318
201
572
358
326
331
336
343
356
376
404
432
445
437
359
301
296
300
302
307
309
310
319
327
320
324
326
213
571
369
335
333
339
347
357
375
402
429
442
442
380
309
294
299
302
304
309
309
310
314
323
322
324
316
274
469
335
330
332
338
346
361
384
412
436
442
415
331
289
290
295
299
302
304
311
312
311
316
320
183
564
353
323
328
328
338
346
368
395
423
437
429
352
290
281
286
289
294
297
299
307
305
309
314
316
175
565
352
323
323
328
334
348
367
396
423
436
427
354
290
282
286
291
294
299
301
301
308
303
308
312
318
181
556
348
320
321
324
332
343
356
382
411
429
429
363
296
288
289
285
294
297
296
305
304
306
313
314
214
528
361
327
333
339
348
358
377
403
431
452
447
374
304
288
296
299
303
307
309
305
314
311
312
315
317
221
530
356
319
318
322
330
337
354
376
408
425
422
362
281
264
265
267
271
273
275
276
281
279
286
288
291
225
453
353
300
302
306
313
321
337
363
397
420
424
372
296
278
278
287
290
294
300
302
307
309
317
321
329
281
441
398
337
338
341
350
357
374
398
430
453
456
408
326
304
305
309
314
318
320
321
330
330
330
332
339
209
588
364
342
342
345
352
364
381
407
436
455
449
374
303
293
294
298
301
303
303
307
314
311
314
316
237
499
364
320
319
323
330
341
360
387
423
439
440
374
295
282
283
285
289
293
295
292
305
309
305
306
305
202
500
323
314
318
323
333
348
371
403
428
439
411
326
286
285
289
291
297
295
302
321
308
309
314
260
433
383
320
325
337
333
349
366
396
430
453
459
390
300
284
286
290
295
298
299
312
324
359
283
312
145
601
346
345
309
337
338
333
384
380
433
441
429
340
280
283
264
283
287
284
289
297
311
301
302
310
117
602
322
309
311
317
328
335
364
391
423
439
409
312
269
260
265
271
273
276
288
287
291
295
233
426
376
305
304
310
319
329
346
374
411
433
435
361
284
267
274
278
287
288
293
299
303
305
307
190
563
357
319
320
327
336
347
368
402
432
452
444
359
290
284
289
295
298
297
309
313
308
313
315
147
622
340
318
319
324
331
342
362
395
426
443
420
326
270
267
269
272
275
278
280
292
293
291
296
266
356
411
305
305
309
315
328
345
370
407
432
438
382
294
271
273
276
284
283
296
306
300
305
306
185
550
351
318
322
324
333
345
367
396
433
449
438
347
282
278
283
289
293
297
297
306
310
310
316
301
294
466
330
327
329
335
345
361
387
424
453
461
410
316
288
288
290
293
298
297
313
320
314
318
319
156
631
348
326
325
331
339
352
371
406
439
457
439
348
290
288
286
290
296
294
304
315
311
315
321
232
497
375
325
329
334
340
353
372
399
433
453
455
383
301
284
287
289
295
296
296
311
308
308
311
285
350
408
318
318
324
327
339
355
381
415
440
446
391
304
278
281
284
285
289
290
292
317
303
305
309
293
285
450
319
317
322
327
338
351
378
412
441
451
408
317
284
284
288
290
296
294
315
313
310
313
313
159
562
345
325
325
337
342
359
378
411
444
462
441
354
291
288
292
294
299
304
305
331
314
312
315
298
328
426
325
322
325
332
341
357
382
417
445
454
408
311
278
275
283
284
288
292
315
298
298
304
262
400
393
312
312
314
321
333
349
377
414
438
440
375
289
271
274
277
282
288
292
289
307
314
307
311
312
140
620
340
318
324
330
338
350
377
406
444
458
451
369
306
296
297
301
303
306
307
324
328
321
323
327
190
580
365
337
338
344
355
364
385
414
448
462
458
376
302
291
294
298
300
303
302
317
321
310
311
315
173
587
344
318
318
324
330
343
362
392
427
441
434
354
285
276
279
283
285
288
287
314
304
302
306
308
164
524
329
317
323
325
337
352
371
403
435
442
416
329
285
283
285
291
295
298
295
319
311
312
309
319
174
519
338
323
324
331
338
350
375
406
435
451
431
346
289
285
288
293
295
298
297
315
318
309
312
314
158
583
339
316
317
325
335
345
365
392
430
446
434
352
286
285
291
284
293
299
301
297
320
314
308
315
319
179
545
339
328
331
336
342
355
377
405
438
449
429
355
301
296
300
304
306
310
305
320
329
321
321
326
227
534
368
331
332
339
344
354
371
400
433
448
447
379
298
286
286
287
290
292
297
293
290
315
299
296
295
261
359
374
292
288
290
294
303
317
336
366
388
395
353
259
222
223
227
232
230
228
232
243
250
236
241
245
151
463
296
254
261
267
275
287
306
335
371
399
394
331
258
246
251
258
264
275
278
287
300
294
301
303
224
490
368
317
319
329
340
354
375
404
441
465
469
398
315
304
311
310
318
325
329
335
356
341
344
346
299
461
418
355
355
369
369
379
394
420
455
481
486
431
338
305
314
317
321
322
317
344
330
330
335
331
206
529
344
336
337
346
356
368
394
426
455
466
426
335
289
289
297
298
300
300
323
321
311
310
318
168
597
344
325
323
328
336
349
366
398
433
452
439
354
288
283
283
289
300
295
304
325
307
313
315
279
394
399
327
326
331
340
348
363
390
426
449
458
390
312
279
296
273
283
292
295
295
308
299
296
298
200
513
337
296
292
298
304
314
335
358
394
410
400
336
253
240
242
245
251
255
252
281
269
268
269
272
133
493
290
281
286
296
303
319
347
378
408
420
383
300
262
264
267
272
280
282
292
313
300
304
309
274
396
400
328
328
333
345
356
373
400
435
461
467
411
320
298
306
313
316
322
323
351
338
334
339
338
215
532
356
344
349
354
362
378
400
431
458
468
431
338
293
293
296
299
302
300
329
312
309
311
310
200
502
324
316
321
329
337
353
375
409
434
442
404
311
280
282
287
290
295
292
308
317
306
310
313
187
576
350
322
322
330
334
345
367
393
429
445
434
359
292
287
287
292
297
297
314
321
313
318
320
187
563
359
327
333
336
343
356
376
408
442
457
449
365
293
284
289
290
292
293
324
306
300
302
286
284
421
310
304
311
319
330
347
372
404
426
432
377
284
257
262
265
266
267
293
286
282
287
288
135
520
307
300
305
309
322
337
360
395
423
433
394
307
276
276
282
284
285
308
311
307
310
313
152
585
342
323
325
332
341
356
377
409
438
452
422
335
289
288
292
295
297
307
326
311
313
314
274
392
392
328
327
330
338
346
353
388
413
437
435
372
294
281
290
288
294
291
317
315
308
313
319
186
527
328
330
332
340
347
366
389
421
451
459
417
323
293
294
298
305
305
328
322
317
318
322
161
568
336
325
330
337
343
356
384
420
447
455
411
318
286
287
290
292
295
297
296
311
312
309
310
315
157
609
340
315
316
325
332
348
368
400
429
441
427
346
281
278
281
287
294
295
294
305
314
305
309
311
179
591
346
319
321
329
335
347
367
399
436
449
440
352
284
276
282
286
290
294
295
305
316
305
307
310
182
600
343
316
316
322
330
344
364
397
431
449
438
353
285
278
280
285
287
292
292
299
319
306
307
311
254
448
387
317
317
323
331
341
358
389
425
446
443
374
291
276
276
279
282
286
288
290
289
299
305
296
298
300
151
616
325
299
300
306
313
326
342
373
406
425
417
337
271
262
263
269
272
282
284
288
286
312
298
300
301
295
260
445
321
315
324
334
345
357
384
416
442
447
412
329
291
294
299
305
309
312
313
328
335
324
328
332
192
594
365
337
337
344
354
365
385
418
448
459
445
360
298
292
296
301
304
306
306
323
325
315
320
321
166
608
346
324
327
333
342
352
376
406
440
451
432
345
287
287
292
290
299
299
296
321
316
311
312
312
160
553
338
321
323
328
340
351
377
408
434
446
419
333
284
280
287
294
298
300
307
330
311
310
317
253
456
379
327
325
334
338
354
375
398
445
459
459
382
295
285
287
287
292
293
303
316
302
303
310
208
525
356
317
320
326
334
345
367
400
434
457
444
357
290
284
293
296
296
302
330
311
304
315
295
373
418
323
317
322
321
335
364
385
431
447
432
374
294
273
274
291
288
288
314
300
310
319
299
279
455
320
319
323
330
335
352
373
404
426
427
370
290
278
278
284
284
285
297
315
300
304
304
205
509
344
315
317
323
337
333
360
397
422
434
434
353
294
289
281
287
301
292
332
313
309
315
309
263
463
325
322
326
329
342
352
384
414
434
442
385
309
292
295
300
298
298
327
318
318
318
318
231
488
334
326
331
338
346
362
385
417
438
444
389
305
285
286
290
292
296
310
319
308
310
315
195
540
348
322
325
331
342
353
376
403
432
444
433
351
290
287
293
296
296
299
317
320
309
311
316
169
571
345
321
323
329
337
352
375
406
436
444
421
335
282
282
287
292
296
298
301
305
307
311
316
224
507
368
326
327
333
337
350
369
396
429
441
432
352
289
283
285
290
294
299
300
306
315
312
315
320
175
536
339
327
331
336
344
359
385
417
441
450
407
319
290
287
292
299
296
303
313
314
312
315
317
190
493
346
326
330
337
339
361
380
415
439
447
412
324
289
291
295
298
303
300
307
316
310
312
319
215
538
362
328
328
334
343
352
371
401
433
448
435
354
291
285
287
291
295
295
296
317
311
310
313
298
300
440
327
322
327
333
346
361
389
423
444
446
386
305
287
288
290
296
300
305
301
313
320
315
318
321
152
594
345
329
330
336
345
357
379
409
436
447
417
331
288
287
291
292
298
301
301
309
311
309
316
318
207
534
364
327
327
330
339
349
367
397
426
439
432
353
290
281
288
292
295
295
300
308
316
313
316
321
208
544
362
328
326
332
342
353
375
405
436
451
440
359
295
288
294
297
301
303
303
310
325
313
315
318
268
437
399
329
327
333
340
351
368
397
433
452
451
380
300
288
289
291
296
301
303
303
312
326
314
315
320
225
534
368
323
324
328
335
348
366
396
431
448
444
366
293
282
285
288
292
296
299
302
299
324
311
313
314
309
248
483
327
321
326
331
340
358
384
417
444
449
405
315
284
285
288
290
294
297
302
305
305
312
325
316
318
320
215
554
368
326
326
331
339
350
369
397
429
447
444
380
302
287
289
294
296
302
306
311
307
313
330
318
320
322
254
466
387
327
330
333
343
352
368
396
428
443
445
384
303
285
286
293
298
302
304
304
303
328
317
317
318
316
222
481
338
327
332
339
350
365
388
419
448
454
423
327
288
289
293
299
303
307
303
315
327
320
314
323
200
563
360
324
325
331
341
352
371
405
436
451
444
351
291
281
280
288
289
293
297
297
314
311
306
310
313
151
601
343
318
320
326
335
347
368
398
431
447
425
340
286
282
286
289
297
299
303
304
312
327
317
320
324
236
503
379
327
332
335
342
355
370
401
434
450
446
377
299
287
290
296
300
304
303
300
328
315
316
316
314
214
483
335
325
328
336
346
359
385
419
446
452
410
317
282
282
288
293
297
298
301
298
320
315
311
314
315
153
558
336
322
325
333
340
353
374
408
440
451
421
329
284
285
286
288
296
297
302
300
308
320
311
313
317
233
495
375
320
325
331
334
346
367
397
431
447
448
380
299
283
283
288
293
300
301
302
298
322
317
314
317
318
177
523
340
326
328
335
347
356
382
414
443
453
422
329
283
281
285
288
292
295
298
298
303
316
305
307
311
218
513
365
314
315
319
328
340
358
386
422
443
442
364
291
279
282
286
289
293
299
301
301
303
325
313
314
319
290
365
426
329
323
330
334
347
360
388
422
448
454
403
316
283
286
287
294
296
302
302
322
324
315
319
322
171
576
351
326
329
337
347
360
382
416
448
463
438
345
290
285
288
293
296
301
302
303
328
312
313
315
302
297
450
328
323
327
334
343
358
385
423
449
455
399
309
283
285
287
292
296
299
298
309
320
311
314
316
227
520
376
324
326
329
337
350
364
397
437
454
447
368
294
286
288
292
295
300
303
303
328
316
318
320
315
228
480
340
332
334
342
350
367
392
424
457
468
420
326
293
293
297
299
305
309
304
327
324
316
316
320
162
569
336
320
322
325
335
347
373
408
443
458
425
329
281
279
285
292
291
297
298
297
321
307
306
311
305
256
472
326
322
324
330
340
355
381
418
446
453
399
307
284
282
282
289
290
296
296
315
316
311
313
317
199
568
357
322
326
331
342
352
372
405
441
462
445
356
290
284
280
287
296
300
299
306
328
311
310
312
282
385
392
324
324
329
335
346
357
386
423
451
450
385
300
283
289
282
304
306
305
323
320
311
326
322
165
601
349
343
332
333
344
366
382
414
456
471
426
328
297
293
292
297
298
302
329
322
308
307
313
132
635
323
311
315
319
329
342
363
399
435
453
415
313
274
274
274
277
281
282
310
303
297
300
302
128
596
323
309
310
318
326
340
365
399
432
445
407
307
269
268
268
268
272
277
276
299
290
287
290
290
141
517
308
296
299
304
315
331
346
384
411
422
387
300
262
264
270
272
276
284
289
289
281
294
306
303
301
307
263
400
399
319
319
323
333
343
359
383
421
444
450
409
319
285
293
293
294
303
307
314
312
310
329
314
166
585
356
332
332
336
351
358
387
417
449
469
432
341
294
292
292
302
306
304
302
317
318
317
317
321
163
564
347
329
335
336
351
364
384
417
450
459
429
339
286
294
300
320
294
304
312
313
322
324
324
327
189
542
348
333
334
337
345
357
383
418
447
454
417
320
285
283
287
288
292
296
300
304
302
306
318
314
313
317
228
514
374
321
321
327
330
341
359
386
418
438
440
376
293
277
279
283
286
291
293
293
299
305
304
308
309
178
518
331
320
325
331
338
351
374
410
441
452
405
315
283
283
285
290
296
299
307
308
310
314
311
317
330
326
327
328
210
581
372
336
337
342
349
362
377
409
436
456
455
399
312
290
294
297
298
305
307
308
310
310
317
319
321
263
447
396
328
328
332
338
348
366
393
429
452
449
372
292
279
279
279
284
288
290
290
290
293
291
291
305
299
299
302
213
506
361
301
300
304
312
323
338
365
399
422
427
369
276
252
256
260
263
266
273
277
278
284
292
292
295
302
148
538
327
311
314
321
334
349
373
412
449
468
432
331
280
278
284
289
298
300
307
310
314
318
324
326
331
305
367
435
345
339
345
352
361
376
401
437
466
472
419
324
292
294
297
297
301
303
305
305
313
314
315
319
323
161
635
351
326
327
331
337
348
369
399
435
458
442
351
289
286
290
291
295
300
306
308
312
309
319
321
327
283
423
410
336
333
339
345
353
374
399
437
462
466
407
315
291
294
295
299
303
306
308
310
311
315
317
321
248
479
386
329
329
331
340
350
366
396
431
453
453
380
296
280
281
288
290
294
298
301
300
304
307
315
315
319
294
332
446
330
326
329
335
343
359
384
420
444
452
407
316
283
284
287
293
295
298
302
304
306
302
321
319
318
320
322
176
549
339
325
328
334
342
353
375
407
438
448
430
341
286
281
282
285
290
293
300
301
307
318
318
322
327
194
536
346
333
339
344
347
360
382
415
447
455
426
336
292
291
292
298
302
308
310
310
318
315
319
321
324
218
547
372
330
332
334
341
353
369
400
432
450
449
378
301
285
290
293
297
299
301
308
307
311
312
317
316
317
280
384
433
323
322
325
332
340
356
383
419
443
453
398
302
273
275
279
285
288
292
292
293
293
302
304
310
282
338
427
320
317
320
329
336
357
384
423
453
460
404
305
276
275
282
287
290
298
298
307
305
308
312
316
190
583
361
324
325
330
338
351
371
401
440
459
452
366
289
280
281
287
291
297
301
302
310
310
310
317
318
177
603
356
324
325
330
338
350
370
402
438
456
447
361
292
283
285
289
292
298
301
305
308
308
316
323
320
321
325
205
589
372
331
333
336
340
353
371
399
434
453
454
386
304
287
287
293
292
303
302
305
311
307
309
321
318
219
521
382
330
325
332
338
348
369
403
435
451
454
377
300
284
291
289
297
303
306
306
311
312
316
320
324
235
511
384
330
329
336
341
355
373
401
432
454
455
384
302
283
286
290
295
299
301
305
303
312
309
314
317
322
174
603
362
327
329
331
341
351
369
396
431
448
443
364
290
283
287
290
289
300
302
301
309
306
311
318
320
219
530
377
327
328
332
341
351
372
397
435
455
454
379
301
284
287
290
296
298
301
310
307
313
314
319
234
504
369
327
327
333
338
349
365
394
432
450
449
374
295
280
282
286
289
293
293
303
302
304
308
310
200
539
356
318
318
321
332
343
361
391
425
443
436
353
286
278
281
285
287
290
292
301
300
303
310
312
211
525
362
321
322
324
335
345
366
394
429
447
444
362
295
286
290
289
295
301
305
306
304
324
321
317
320
322
164
588
351
326
330
335
345
354
378
408
438
453
445
364
296
289
292
294
300
300
310
308
310
313
315
241
481
372
324
324
328
334
348
364
394
428
445
441
360
286
277
280
285
288
291
295
299
299
296
319
316
313
316
318
158
565
343
324
328
335
342
355
376
408
439
451
439
353
293
287
292
294
298
301
303
313
314
316
320
323
187
588
361
329
329
333
340
350
373
404
437
451
438
349
285
280
282
289
291
296
299
299
305
313
312
316
312
261
457
334
324
326
334
345
359
387
415
443
455
415
322
284
284
290
293
302
300
308
321
313
314
317
265
445
380
327
328
332
339
348
367
394
429
452
453
378
296
280
287
287
292
298
348
281
301
326
289
298
256
423
399
307
319
313
333
328
368
386
435
453
434
386
277
266
277
272
287
288
290
311
300
302
304
311
155
593
333
314
320
321
331
344
363
399
433
447
426
335
285
282
284
287
290
292
301
308
304
304
306
216
480
355
307
310
309
315
328
345
376
408
428
422
342
268
257
263
268
272
272
272
294
290
290
295
299
150
523
324
312
316
327
334
351
372
404
434
444
406
316
280
277
277
281
281
286
305
304
301
303
296
226
469
317
308
314
319
333
348
374
410
436
446
387
299
283
286
287
294
294
302
317
316
316
319
286
381
409
334
334
338
349
358
378
406
440
461
462
391
309
293
297
302
302
302
320
323
314
317
323
197
579
359
331
332
337
345
358
377
409
439
454
432
341
290
286
289
293
297
295
310
314
310
313
318
184
592
353
323
324
326
336
346
366
395
428
442
426
335
283
278
282
285
289
290
297
304
305
309
313
255
441
386
323
323
325
335
343
362
390
422
442
439
364
290
278
282
282
289
294
295
293
310
309
310
315
309
249
481
327
321
322
330
336
350
375
409
433
444
393
296
269
269
271
275
280
281
282
307
296
299
302
281
324
428
311
306
311
321
326
341
368
400
426
429
364
285
269
268
271
275
281
282
295
303
294
299
302
178
536
351
313
318
326
331
345
364
395
426
439
428
347
285
283
288
292
299
298
301
323
313
314
318
303
300
458
333
330
335
341
351
365
393
423
449
458
393
309
291
291
295
298
303
303
329
320
315
321
319
208
504
339
327
337
341
348
365
388
420
448
457
410
314
287
287
290
295
298
298
317
311
305
308
307
171
511
327
313
315
320
328
340
363
398
424
423
385
295
260
258
263
268
271
273
291
279
282
286
236
393
369
298
297
301
311
324
340
369
405
423
420
347
279
271
275
281
285
289
315
303
304
307
294
291
447
325
323
328
334
345
361
386
421
440
445
381
303
293
289
297
302
302
322
322
317
323
326
176
548
352
336
340
344
351
368
390
421
447
455
422
332
295
295
298
301
308
305
316
317
314
320
317
201
497
337
323
326
332
342
354
377
408
431
439
397
307
278
280
281
284
289
289
297
301
301
305
309
175
570
347
320
323
328
337
349
368
400
433
443
424
339
289
286
287
293
295
300
301
308
311
314
316
319
161
557
340
326
322
329
331
345
367
399
423
434
403
312
271
272
273
279
283
284
285
290
298
292
300
300
167
497
326
308
313
319
331
341
366
397
424
433
393
303
267
267
270
274
276
278
279
286
286
288
291
294
147
574
329
301
302
309
315
327
351
381
413
425
407
319
270
266
272
278
281
291
293
298
298
309
311
314
241
481
384
329
331
335
342
355
373
401
434
452
453
376
304
291
295
299
303
308
310
321
321
323
329
332
179
596
362
340
342
348
357
367
392
422
452
465
435
346
300
297
299
303
308
309
314
315
318
321
323
246
500
381
329
328
332
336
344
362
390
425
441
433
347
281
276
273
274
275
278
278
284
289
291
288
277
272
416
301
297
299
305
313
328
356
392
416
424
358
273
253
251
262
267
271
279
287
288
290
299
238
436
369
312
313
319
330
343
361
391
429
448
442
362
293
287
289
295
299
301
304
324
324
322
324
318
281
479
342
339
341
349
359
374
401
436
460
465
402
317
300
305
304
307
313
314
312
330
325
323
325
327
165
582
347
334
337
339
347
359
380
412
442
454
420
329
286
286
288
293
294
298
304
313
306
308
315
223
501
365
322
326
329
339
351
370
401
434
453
441
354
287
280
283
287
293
295
296
300
316
307
311
313
265
421
394
318
319
323
330
341
358
384
418
441
439
368
292
279
280
283
287
290
293
298
316
307
309
312
281
367
417
320
320
322
329
339
356
384
416
442
442
371
295
279
280
284
289
290
292
312
311
304
308
310
159
552
339
314
316
321
327
339
358
388
417
428
399
306
253
249
251
252
252
252
248
272
256
255
256
246
192
408
269
261
264
272
281
297
322
358
386
394
339
253
235
240
246
248
255
262
263
275
290
285
290
296
192
517
352
310
313
321
332
347
366
398
435
455
453
377
304
299
303
306
313
318
320
338
344
339
340
345
208
604
380
355
356
361
371
382
403
435
469
483
462
371
314
309
312
319
321
324
322
336
341
333
334
336
206
594
370
341
343
346
350
362
381
411
444
458
442
357
296
291
294
297
300
301
305
328
313
315
319
280
390
418
324
323
334
334
350
365
389
427
443
439
372
295
280
277
285
286
289
289
299
315
301
305
307
218
497
366
316
315
320
328
341
362
390
422
443
438
363
287
274
275
282
287
292
312
310
301
308
307
161
580
342
315
320
329
336
349
373
406
435
448
422
331
281
280
284
290
289
288
313
311
302
304
308
148
598
332
318
320
325
337
349
373
406
437
446
417
324
281
282
286
289
291
291
317
313
308
310
313
150
575
338
323
325
332
341
356
382
416
440
448
413
322
287
285
290
292
293
296
317
315
313
316
318
180
523
337
324
324
329
341
354
378
411
432
442
405
311
276
273
276
277
276
290
298
289
283
286
194
479
330
286
288
294
298
312
327
351
383
395
384
305
240
234
240
242
247
264
274
260
265
269
168
500
314
283
288
299
305
327
342
376
411
427
412
330
279
273
283
289
290
321
317
308
314
317
158
603
344
332
331
341
350
367
390
426
455
465
426
334
302
305
306
308
324
339
324
324
327
272
465
397
336
336
338
349
361
380
410
445
462
451
366
303
297
299
304
304
308
329
322
323
324
318
222
514
338
332
332
339
348
364
391
425
449
452
394
307
287
288
292
293
299
298
317
315
311
313
318
173
600
345
324
323
331
339
350
373
408
433
448
423
331
286
284
284
289
292
296
304
319
309
314
317
293
349
415
331
327
333
341
350
371
398
430
454
456
387
305
287
290
293
299
299
313
330
314
315
319
259
446
389
325
326
331
338
351
369
402
434
454
445
360
290
284
283
287
292
295
296
312
318
308
311
314
205
540
359
321
320
328
337
348
369
400
437
453
432
347
291
285
290
288
291
298
300
304
302
324
317
315
317
317
190
522
339
325
327
332
338
351
376
409
438
448
406
316
279
277
280
284
289
292
295
302
316
302
304
305
232
465
360
310
310
313
319
329
343
371
402
421
410
322
244
231
231
231
233
235
237
234
229
241
241
233
231
231
88
495
259
230
233
237
241
255
277
309
346
364
348
264
207
205
212
221
219
228
238
241
247
271
265
270
280
199
471
350
300
304
317
325
343
366
400
438
463
453
372
300
300
279
305
317
320
327
321
355
347
344
356
353
235
573
383
374
378
389
400
410
438
475
501
508
460
370
338
338
335
340
341
342
339
365
354
351
353
356
223
550
363
352
353
355
361
376
394
424
446
451
404
309
267
262
262
261
264
257
257
247
264
260
254
250
249
79
525
271
248
250
257
262
275
297
330
359
371
350
266
217
217
223
229
236
242
250
257
263
264
281
286
285
290
296
139
601
336
319
323
332
340
357
379
414
443
458
450
373
313
308
312
313
321
327
331
334
341
338
343
367
351
353
356
286
505
419
363
364
369
377
385
405
427
459
478
480
428
342
317
320
325
327
332
333
336
331
349
350
342
346
345
191
612
369
348
351
354
364
375
396
425
456
466
447
357
302
297
297
303
305
309
312
313
309
327
324
319
321
325
158
592
343
325
328
333
340
352
373
403
430
439
419
333
281
279
279
282
284
288
292
295
297
300
301
299
322
308
310
312
277
378
422
318
317
322
325
335
349
368
399
417
422
386
300
267
263
266
270
272
273
274
277
278
275
284
293
283
288
289
151
540
326
291
291
299
304
313
335
360
384
405
399
335
260
254
253
265
264
271
268
274
284
299
288
291
294
176
559
335
317
318
326
338
353
371
404
441
458
447
365
297
292
296
299
307
306
310
331
328
320
326
326
173
590
352
334
340
345
357
370
394
430
460
474
437
345
305
306
307
311
314
314
333
335
329
330
334
196
607
361
338
340
345
351
365
386
416
447
462
438
347
299
297
300
299
302
306
305
304
325
318
319
322
319
220
508
333
323
328
329
339
350
372
402
427
436
391
301
269
263
261
264
263
265
262
277
274
266
266
264
134
495
299
264
265
270
277
283
304
335
364
379
361
276
217
208
215
220
223
226
230
229
242
246
244
251
251
178
424
279
271
278
288
300
319
348
385
416
426
383
297
270
270
275
284
291
298
303
306
330
324
326
332
331
250
522
357
353
357
367
378
394
421
454
482
494
448
358
328
330
331
335
339
343
347
348
348
358
358
360
361
334
397
478
368
365
368
375
383
397
422
453
480
483
424
341
314
315
317
318
321
324
328
328
325
328
348
336
337
336
308
382
435
341
338
340
346
356
368
396
425
449
457
408
320
284
284
283
289
294
299
299
297
313
310
310
311
311
205
489
327
315
317
324
332
345
370
404
432
443
398
300
260
258
259
263
266
269
271
267
279
285
274
279
283
154
542
322
285
287
292
302
315
335
366
404
425
416
331
263
260
261
267
272
283
285
289
301
311
302
307
312
228
502
380
319
323
332
337
351
373
402
443
468
466
388
304
291
292
296
302
306
307
317
338
326
327
328
329
236
503
350
341
348
354
363
379
406
441
473
481
437
342
298
298
301
303
308
310
318
338
320
322
327
288
390
419
335
336
339
346
357
377
407
442
468
470
397
308
291
291
295
298
299
298
323
316
310
312
315
151
597
339
320
324
330
338
351
376
414
445
458
421
323
280
280
283
285
288
291
292
309
309
302
305
309
164
604
345
316
320
324
334
347
368
400
436
452
435
342
284
285
283
288
295
293
294
322
312
310
313
314
172
539
331
322
327
333
343
360
383
418
446
458
412
315
283
286
288
290
291
291
307
307
301
304
308
165
575
343
308
308
314
324
335
356
389
417
430
415
323
266
262
265
266
269
274
298
283
286
291
269
316
392
305
303
307
315
328
347
377
411
434
440
368
287
274
276
282
288
289
310
311
307
309
315
172
579
352
324
330
337
346
363
386
419
451
465
441
344
295
294
297
301
304
304
321
326
315
318
322
211
559
372
332
332
336
344
354
376
405
438
456
442
353
292
288
290
292
295
301
298
312
319
314
318
319
182
595
358
327
329
335
342
355
375
405
437
453
433
345
285
282
285
290
295
299
300
305
306
304
308
323
314
318
319
273
412
409
322
319
322
327
337
347
370
398
416
416
368
277
241
238
238
240
239
238
237
239
242
237
239
224
210
356
246
240
239
246
257
273
300
337
361
371
309
223
203
204
212
221
227
235
243
245
254
265
270
275
278
178
480
313
308
314
326
339
356
384
420
448
464
428
339
306
312
314
322
326
333
341
342
348
346
370
367
365
369
370
240
586
391
379
383
389
397
412
435
466
493
503
475
384
335
336
335
339
338
343
345
346
350
347
356
356
358
307
448
443
359
356
360
366
373
389
414
448
468
468
402
318
299
302
304
307
312
315
316
317
316
313
325
330
329
329
331
166
618
358
334
335
340
347
360
379
408
434
448
439
360
294
288
288
291
298
301
303
304
307
315
312
317
320
186
508
342
329
331
336
346
360
379
414
441
451
417
322
278
276
280
283
287
289
291
294
295
297
294
312
309
310
312
289
345
443
326
321
329
333
343
359
380
412
438
445
408
313
273
272
276
277
279
279
283
283
280
278
297
287
285
287
259
314
396
286
280
282
286
293
305
327
356
379
385
340
249
219
217
223
224
226
233
234
241
242
247
253
257
138
488
316
276
279
291
303
310
335
366
399
423
420
343
279
275
279
287
293
301
306
311
318
328
330
340
309
398
432
360
359
366
372
387
402
429
464
484
494
440
351
324
328
333
338
340
344
342
349
351
352
353
359
203
608
382
362
362
365
373
386
407
437
466
477
455
363
310
307
308
314
317
318
321
321
330
328
329
330
332
173
587
355
335
335
341
348
361
382
414
442
454
430
346
292
287
287
291
295
299
302
312
312
314
318
320
188
566
360
324
325
330
340
349
369
397
427
442
430
340
269
262
265
268
270
275
274
275
277
276
289
287
283
285
287
97
656
303
290
292
297
305
320
342
373
407
425
419
338
269
264
264
271
273
280
284
285
305
304
305
309
315
118
646
339
328
334
339
349
364
387
420
450
461
441
348
300
296
298
303
306
311
312
321
325
327
333
334
179
586
371
346
352
355
363
375
396
424
447
458
444
362
308
306
309
313
313
317
314
327
332
326
331
332
196
512
357
338
340
344
352
366
388
415
439
444
422
336
287
285
289
297
300
298
298
312
307
307
311
259
417
393
324
323
325
332
344
360
389
420
438
438
373
290
272
274
280
283
282
284
305
294
291
291
281
235
437
302
294
299
303
309
322
347
379
399
403
348
260
237
236
237
243
244
250
275
259
261
263
253
267
388
286
287
293
305
315
335
362
399
425
427
368
287
268
271
278
286
288
298
316
305
309
315
273
407
398
332
337
345
354
365
389
416
449
469
468
395
319
307
310
314
320
321
342
346
336
334
337
204
601
372
343
345
351
359
371
394
428
463
478
448
354
303
299
300
302
305
305
333
323
319
321
322
153
586
341
330
334
337
347
364
390
429
462
475
422
318
287
288
290
294
297
303
303
322
326
320
321
323
170
656
343
322
323
326
332
342
360
391
421
436
418
319
254
246
244
241
241
244
246
247
246
244
266
248
249
251
224
272
385
256
256
262
270
281
300
326
364
393
405
359
263
236
238
243
251
259
267
274
280
286
289
293
317
308
310
317
277
408
439
334
334
340
353
365
383
410
445
472
482
440
341
312
309
313
319
322
327
331
329
356
343
345
347
331
323
512
361
362
369
374
383
401
428
459
484
491
435
346
322
322
322
324
325
331
325
336
340
336
333
330
228
527
378
333
332
335
341
346
365
385
408
420
414
335
256
240
239
240
248
239
233
253
247
239
243
240
90
467
271
245
249
256
263
275
307
335
368
384
355
268
217
217
225
233
238
244
257
271
260
272
278
167
519
338
297
305
314
325
342
366
402
440
462
451
358
298
299
304
311
316
319
342
344
339
343
350
225
588
398
365
365
372
384
396
420
450
483
499
480
391
336
330
332
337
337
345
366
354
349
354
353
248
527
371
360
359
369
379
390
411
444
468
478
430
345
316
320
318
321
321
343
348
330
330
333
221
583
367
337
337
341
352
363
387
419
454
471
449
354
298
296
299
301
304
318
333
313
310
312
251
517
383
317
318
322
330
340
357
386
423
446
442
351
288
282
284
283
284
312
310
299
303
305
114
661
305
306
307
312
322
337
357
389
417
432
399
305
276
277
278
282
286
293
298
310
316
305
307
307
177
651
330
308
306
310
319
329
344
368
393
403
401
323
249
240
238
238
240
238
239
248
248
240
236
239
126
491
277
234
238
242
250
260
280
311
338
352
351
274
211
208
212
219
227
238
241
262
266
267
275
283
133
532
337
311
319
329
340
359
386
416
443
459
442
360
311
312
321
327
334
336
339
346
369
356
360
365
325
433
459
379
378
387
391
403
421
446
477
494
495
439
353
332
339
339
344
346
343
363
358
353
354
354
215
555
377
358
363
365
374
387
411
443
468
474
428
336
302
302
305
307
310
312
308
327
325
318
320
323
157
570
346
321
324
328
336
349
372
402
426
430
392
297
255
254
255
258
261
263
265
261
269
277
267
268
270
150
532
311
272
275
281
288
301
319
349
373
395
406
317
255
250
259
258
266
275
273
294
297
296
297
308
189
539
356
318
331
339
352
362
389
418
448
463
448
368
310
310
314
324
329
330
330
346
352
343
346
349
222
594
383
354
357
362
370
379
402
435
460
476
456
366
309
305
309
313
319
315
323
346
327
328
329
299
386
422
336
335
337
346
356
375
404
443
465
458
377
300
289
289
293
296
299
300
321
319
312
315
320
175
597
352
322
327
334
345
356
380
413
447
465
430
334
292
292
294
298
300
304
302
323
322
317
315
322
175
587
353
328
330
335
346
357
378
410
442
459
423
332
275
285
284
292
289
298
310
330
316
316
325
274
433
396
342
337
344
352
360
382
412
441
469
458
376
298
291
295
299
305
303
321
325
309
311
316
168
630
339
320
323
328
337
350
371
407
441
455
416
313
269
271
273
271
278
281
305
289
294
295
247
413
410
306
307
313
323
338
358
388
431
452
447
349
281
278
281
287
288
303
316
307
310
316
220
559
362
320
323
328
336
348
368
401
438
454
436
339
284
283
281
285
287
290
314
308
307
310
312
128
628
331
323
327
329
341
356
381
416
444
455
412
314
280
279
279
278
286
291
285
312
299
295
302
306
133
563
322
315
318
326
337
353
373
403
430
441
396
302
270
277
275
284
289
292
300
297
320
314
315
315
316
113
637
327
323
324
331
344
360
381
410
436
445
422
327
280
275
275
277
280
284
283
287
292
286
285
289
167
542
324
289
290
293
302
313
332
358
386
402
399
318
250
243
249
255
259
267
272
272
290
291
289
293
295
115
571
321
310
315
322
334
350
371
400
425
436
416
324
279
279
281
284
288
291
294
291
300
304
297
300
301
127
600
325
306
307
313
324
338
355
384
406
415
404
319
265
264
268
272
275
280
280
285
299
293
303
305
238
434
385
325
327
337
346
363
378
405
433
447
451
389
316
306
308
313
321
322
324
338
342
340
346
331
339
448
365
358
360
371
379
395
419
448
466
471
419
334
311
313
321
324
324
320
335
329
326
331
325
252
494
348
339
343
348
360
377
402
436
458
465
409
316
289
292
297
298
298
314
325
310
311
313
186
599
349
321
322
329
339
352
374
406
439
454
429
334
284
281
283
282
282
316
310
302
306
306
134
592
325
320
329
333
344
357
390
425
453
455
397
305
289
291
296
297
302
306
324
309
317
321
259
442
411
326
325
329
340
351
370
400
432
450
444
362
292
288
290
294
300
304
309
313
308
331
326
325
327
288
404
456
333
329
332
342
350
367
393
424
445
450
388
298
281
281
284
286
292
295
306
309
305
307
306
122
579
321
316
319
325
336
351
377
409
434
444
395
298
271
273
279
285
290
296
300
300
311
316
312
316
315
148
660
342
324
326
332
342
355
374
402
430
440
432
345
278
273
274
276
279
279
287
286
280
281
282
97
630
297
279
278
281
288
300
319
348
375
384
355
254
216
217
219
222
226
231
232
244
250
249
251
254
82
507
282
275
281
291
303
324
350
383
407
418
391
300
272
279
286
293
301
305
318
324
325
330
336
149
605
364
356
363
370
385
394
418
451
466
480
445
356
326
330
338
337
339
343
343
353
352
358
292
467
421
366
365
372
375
388
405
431
453
467
463
393
329
320
323
327
328
335
333
336
338
341
270
481
397
349
349
354
359
372
389
414
436
449
444
367
302
293
300
301
303
307
312
317
309
315
278
373
410
326
323
327
334
345
361
391
425
444
440
362
286
276
278
282
287
290
296
304
303
307
265
379
408
315
315
318
326
338
358
389
424
441
436
345
281
278
279
280
282
282
294
303
301
306
310
174
531
332
322
322
332
339
357
382
418
444
448
393
304
285
286
288
296
298
303
311
318
317
322
306
308
445
340
335
339
345
355
374
400
434
454
455
383
303
289
290
295
300
302
305
310
316
312
317
290
340
443
326
322
326
335
344
362
391
429
453
453
368
289
283
286
288
291
296
300
301
324
317
314
316
318
126
632
326
322
325
330
341
356
381
418
451
464
414
316
286
286
286
288
293
298
303
304
326
317
316
318
315
195
571
328
323
327
336
345
362
388
425
454
466
408
311
286
286
287
291
297
301
305
310
314
314
321
331
323
325
327
261
520
411
330
330
336
344
354
371
400
435
459
464
400
310
288
286
288
293
297
301
308
308
312
311
315
331
320
323
324
276
455
424
329
328
332
339
350
366
395
431
455
464
404
310
283
284
284
289
294
300
303
304
307
309
308
329
317
318
319
300
313
472
330
327
330
338
348
364
391
426
455
465
417
320
286
286
288
287
295
298
304
306
303
305
322
319
315
320
307
310
441
336
329
334
339
352
367
394
426
450
460
411
325
290
289
297
297
305
308
311
307
314
334
321
321
325
260
472
384
334
334
344
350
359
378
412
439
462
461
391
317
305
303
305
310
310
316
316
318
327
336
325
325
327
182
601
350
331
333
346
346
357
379
413
449
464
439
349
298
295
293
294
300
300
305
317
326
308
309
308
184
614
334
312
312
317
326
339
360
393
433
455
439
338
280
279
278
282
286
289
314
320
305
302
314
159
660
314
308
313
327
333
346
373
396
433
459
437
335
288
282
287
286
292
296
324
311
307
308
302
277
476
322
317
321
329
337
352
387
420
446
460
386
301
288
289
291
292
302
329
307
313
314
276
436
423
315
317
319
326
338
356
386
419
439
438
356
286
277
278
280
284
301
312
300
301
304
205
547
350
312
314
319
328
341
360
389
416
429
419
335
281
279
282
284
284
305
302
296
300
305
130
582
325
313
317
327
338
354
379
410
431
436
402
315
291
291
296
300
304
305
317
318
316
318
321
179
544
348
331
337
341
350
364
384
410
431
442
418
341
301
303
309
311
314
323
328
325
328
316
330
427
345
341
343
352
363
380
406
428
444
443
383
310
298
302
305
306
304
316
320
307
311
299
298
432
321
316
319
323
333
350
371
400
417
417
356
281
265
268
272
272
275
290
290
287
292
281
272
423
308
303
308
316
327
345
373
404
421
421
354
284
274
277
281
284
290
298
305
305
309
288
331
425
325
324
327
335
346
365
391
422
438
436
364
298
293
296
298
303
306
309
316
323
322
325
327
182
554
349
337
343
345
356
369
393
423
447
452
408
326
299
298
301
303
310
309
318
318
325
324
328
250
488
386
339
341
345
351
365
383
413
438
449
439
359
298
292
294
298
302
305
304
313
311
313
317
319
179
587
352
324
328
333
341
353
377
405
432
444
416
328
283
284
285
291
294
299
302
306
303
326
317
317
320
319
201
528
337
328
332
338
348
361
386
418
439
448
406
322
292
294
295
302
305
306
319
331
316
320
328
237
495
383
337
340
341
351
370
431
435
421
452
438
354
295
295
310
306
312
311
313
330
349
294
316
325
178
568
351
339
345
357
355
371
401
431
454
464
418
337
297
295
299
308
306
312
327
334
319
322
325
175
618
357
343
341
350
359
372
396
435
457
471
421
320
288
289
293
295
300
301
324
315
307
310
309
153
573
324
317
317
326
333
351
373
412
436
444
385
290
273
275
278
280
281
301
309
294
298
299
169
612
330
307
309
317
327
339
361
396
429
444
415
314
267
281
273
275
271
280
316
301
301
309
272
412
447
321
317
327
335
349
368
398
428
448
441
355
288
282
283
288
293
295
312
323
313
308
311
200
644
340
313
318
325
332
346
364
395
426
441
426
338
285
285
284
288
291
300
301
301
324
307
306
307
303
180
547
311
311
313
320
330
343
370
398
422
431
393
301
276
279
282
286
292
295
316
313
307
310
313
119
653
333
325
328
336
348
363
384
417
439
454
420
322
291
291
295
300
305
306
329
319
316
319
312
231
495
330
330
334
343
354
372
394
423
444
448
387
301
286
291
295
299
297
321
319
313
314
317
120
625
335
325
331
337
347
363
387
413
436
446
409
315
293
295
301
303
301
321
320
312
317
319
119
618
330
324
326
336
347
361
386
411
432
438
397
305
285
286
293
295
299
321
308
310
312
242
489
372
320
322
327
338
347
369
394
414
424
418
333
283
283
289
293
289
309
307
303
304
308
116
571
326
322
324
334
343
355
378
402
419
425
385
304
292
294
298
302
301
323
318
314
317
314
182
501
333
330
334
342
354
368
391
413
424
429
375
298
290
297
298
302
299
326
317
316
319
299
302
439
330
331
335
342
354
368
392
415
426
427
359
296
295
297
301
299
305
321
314
316
319
233
503
376
330
333
337
347
359
378
402
424
432
423
338
293
296
303
300
296
322
317
315
316
312
221
454
338
333
332
340
353
369
389
414
427
432
372
304
289
294
300
302
314
316
314
313
296
366
388
335
334
339
345
363
378
400
426
435
431
364
312
307
313
309
315
332
324
320
329
297
387
401
338
334
338
346
359
377
398
427
437
432
354
299
291
296
295
305
321
303
304
303
249
447
353
314
320
318
332
342
364
391
422
439
419
333
289
287
292
298
320
322
306
308
309
153
589
325
313
313
316
327
341
369
402
428
429
356
278
268
272
270
280
298
288
288
291
244
424
367
301
304
310
318
335
357
392
427
446
412
316
273
274
278
281
286
291
294
292
313
310
308
312
316
134
615
338
323
327
331
342
356
381
417
446
459
412
320
286
287
284
290
296
302
304
311
310
329
324
321
329
306
347
436
343
339
345
351
363
380
406
440
462
464
398
320
295
296
301
307
312
315
314
336
333
323
324
326
165
572
347
329
334
342
352
365
390
426
459
471
412
314
280
282
285
289
294
298
298
317
316
310
312
315
141
607
326
321
323
330
338
353
377
418
454
468
405
307
281
279
282
285
289
295
298
303
317
306
307
310
220
583
354
315
315
320
329
340
358
391
431
459
448
356
286
277
277
279
284
289
293
299
301
316
316
308
315
318
129
648
330
322
326
332
341
356
378
413
447
466
438
340
288
284
287
288
297
302
305
310
310
314
317
319
320
328
333
328
329
330
184
660
355
334
333
338
345
357
374
403
438
459
463
405
313
287
289
291
294
300
304
307
309
313
315
317
320
338
326
325
329
260
508
398
332
333
336
344
354
371
399
430
457
466
417
321
286
286
288
290
295
301
304
307
310
312
313
313
328
324
319
323
324
178
557
334
325
330
338
347
363
383
417
447
464
448
360
294
288
288
292
297
301
307
307
308
312
314
315
337
325
320
323
298
351
439
329
327
332
338
346
361
384
417
445
453
420
328
282
278
281
287
291
296
300
302
303
301
321
316
315
318
303
306
441
332
327
333
339
347
361
385
420
442
449
411
325
284
282
284
294
295
299
302
303
302
321
312
312
315
279
376
405
323
321
326
333
338
354
379
412
433
436
388
304
268
267
274
276
282
283
282
281
302
299
296
298
294
219
455
318
308
311
318
328
342
368
402
433
442
403
316
276
274
281
284
291
295
299
298
310
317
311
315
319
172
599
352
326
331
337
346
359
379
412
447
464
446
363
300
295
298
301
304
310
315
313
327
334
322
328
334
184
600
366
336
341
349
354
370
387
421
454
469
451
369
303
294
298
299
302
311
310
310
330
326
318
324
324
179
541
347
329
330
336
345
357
380
413
442
452
421
332
280
276
278
283
287
289
293
291
311
306
303
306
307
152
556
329
315
318
325
334
348
371
406
435
449
413
329
278
280
285
285
292
298
300
305
308
312
329
317
321
324
215
552
373
330
335
338
350
361
376
409
445
459
458
387
310
295
299
304
310
311
318
320
334
344
329
331
337
203
589
368
341
341
349
355
368
387
418
449
467
452
371
296
286
290
295
299
302
302
321
316
308
311
312
153
569
333
316
320
326
335
349
373
412
443
456
412
321
277
277
277
283
287
287
291
316
301
300
302
294
252
456
317
310
315
321
331
349
376
413
438
442
381
294
270
270
275
276
280
285
288
291
292
314
304
304
306
277
368
413
319
321
321
330
340
357
382
418
445
445
388
307
282
283
282
288
291
297
302
306
308
311
314
317
319
319
318
320
342
333
333
337
300
409
427
342
341
344
353
364
378
401
429
452
458
443
364
306
299
304
308
311
311
316
316
317
337
324
323
327
298
373
425
327
330
334
336
345
361
391
429
456
455
387
298
276
284
285
293
290
288
287
290
314
316
310
316
317
212
514
337
328
333
340
349
367
389
428
456
469
421
328
291
292
292
298
302
305
308
304
329
327
323
327
326
202
540
338
326
327
335
344
356
381
418
446
454
411
318
283
285
288
288
296
298
298
307
318
310
315
315
240
484
374
326
327
327
334
346
362
394
428
444
440
366
296
285
286
290
295
298
301
321
310
308
317
312
220
479
340
325
332
338
347
363
387
420
446
449
404
320
286
285
291
297
298
309
327
308
307
312
247
469
366
319
320
327
335
347
364
396
432
447
438
357
289
278
283
287
286
291
318
301
299
301
289
208
446
311
301
296
303
320
344
369
405
422
429
366
287
268
269
274
275
286
310
292
294
296
267
366
402
307
315
318
328
340
361
389
424
442
429
361
293
288
287
293
290
312
310
304
312
315
164
550
329
315
325
326
330
348
370
398
423
418
382
301
274
275
282
281
295
308
295
299
302
207
495
343
308
306
318
323
341
356
385
412
420
401
317
271
274
272
275
271
283
299
290
292
295
258
335
381
309
314
315
323
341
360
388
422
439
435
376
295
291
296
305
307
316
318
321
326
328
227
552
373
339
342
346
357
367
387
416
436
445
422
343
300
297
303
309
307
316
315
316
323
325
230
524
377
335
338
341
346
362
384
409
432
440
427
349
299
295
299
303
304
319
319
315
319
325
194
576
353
336
338
343
354
366
387
415
434
444
414
331
292
293
298
300
301
311
315
309
314
313
203
501
330
320
323
330
340
356
382
412
430
431
376
297
281
286
288
294
293
303
305
306
310
314
188
569
348
322
322
328
337
351
373
402
424
