302
310
309
318
322
319
328
336
330
335
340
190
629
381
337
344
348
351
370
389
417
453
475
462
361
297
289
296
296
299
299
306
309
302
329
320
318
323
311
176
583
333
325
322
327
343
357
381
423
460
458
413
317
272
276
280
274
277
289
282
296
304
292
297
298
167
565
346
299
302
308
310
322
338
371
399
415
402
311
248
241
234
239
243
242
245
269
266
262
264
263
133
456
298
276
285
288
299
317
336
385
407
418
378
290
243
246
254
263
273
268
284
293
291
298
297
148
604
347
312
319
324
334
357
374
415
447
460
439
346
293
289
296
300
304
309
335
329
328
331
329
234
512
360
345
353
362
376
385
413
452
477
487
423
336
307
308
312
319
318
320
338
340
336
337
336
187
569
365
343
344
353
364
376
405
439
465
482
425
331
294
286
292
300
305
302
323
308
315
314
284
345
431
327
321
327
331
344
360
398
431
458
453
370
280
267
269
270
268
270
263
290
280
277
274
271
42
638
279
255
260
268
264
287
305
343
374
392
351
240
197
195
198
201
208
209
217
234
253
247
237
249
143
531
317
263
277
282
294
305
328
366
407
439
438
360
279
272
273
276
287
295
306
305
313
326
334
337
332
342
343
117
661
349
366
367
371
376
393
414
436
465
481
467
394
330
320
313
316
334
330
335
342
349
335
358
350
345
356
343
259
503
371
361
364
371
378
388
403
433
451
453
445
355
306
296
294
298
302
297
300
289
309
306
301
304
223
455
378
307
306
306
315
327
346
370
416
423
426
353
271
263
259
262
273
272
276
285
285
306
296
297
307
270
389
447
314
312
320
330
334
362
380
422
446
452
392
309
287
292
289
293
304
303
304
336
318
327
327
324
270
477
345
336
341
355
359
381
403
427
460
459
416
330
294
292
296
302
306
308
318
324
313
323
316
241
464
392
322
325
335
339
342
364
398
425
431
440
374
301
286
288
298
292
297
302
330
315
315
315
313
183
536
332
321
325
329
338
354
375
412
439
445
407
307
274
277
285
287
284
284
305
305
299
297
301
118
661
317
304
303
311
317
325
348
380
408
422
400
312
254
248
249
246
250
257
260
262
275
278
271
275
281
58
623
287
289
287
302
309
321
349
387
412
422
398
311
265
269
272
276
284
289
299
298
304
323
316
322
323
255
457
407
337
344
343
355
363
381
408
442
450
456
399
323
296
304
307
312
313
313
329
328
328
327
332
209
491
367
330
343
352
366
377
405
431
460
467
425
334
295
294
307
306
311
310
314
336
317
322
329
279
384
430
341
339
343
348
362
380
406
441
450
457
384
304
292
298
291
296
295
299
321
317
307
316
312
192
515
337
320
323
336
342
361
388
422
444
448
394
310
285
277
287
287
291
292
317
310
311
314
315
165
539
329
320
322
327
340
350
377
408
433
437
386
293
261
255
256
256
258
252
269
263
257
258
254
105
495
285
251
248
254
259
277
297
328
352
366
342
258
201
199
201
211
217
230
223
242
253
247
256
273
104
551
313
285
294
307
316
337
365
398
431
447
420
338
286
291
298
302
314
315
322
327
334
340
348
354
360
237
575
376
360
370
374
387
396
429
463
487
485
453
357
332
327
320
332
330
340
336
344
355
362
356
361
222
561
383
363
358
368
375
391
420
454
477
484
431
335
305
306
307
310
315
313
325
321
322
334
336
335
332
320
252
543
338
332
338
339
346
355
382
421
442
444
395
292
267
264
253
268
265
263
273
279
276
284
284
279
284
163
548
333
290
294
293
296
323
333
372
404
432
423
334
267
256
257
264
268
274
285
283
295
302
295
309
319
307
315
324
145
610
356
325
325
342
345
374
390
410
453
456
448
373
306
296
297
305
307
315
320
324
323
323
332
337
342
303
387
454
347
353
352
357
375
395
414
454
470
471
405
313
295
297
296
302
310
309
313
310
313
316
320
323
322
325
142
597
337
324
319
323
328
346
358
394
428
427
390
293
243
240
247
250
246
251
254
266
254
263
274
268
274
279
96
556
312
289
294
305
315
335
352
390
426
439
409
320
267
259
275
278
279
291
293
306
305
314
311
338
328
324
339
328
180
572
355
340
352
348
359
377
405
430
471
480
451
357
308
299
304
309
313
314
319
319
325
329
322
328
347
336
338
340
269
489
443
347
345
352
355
367
375
406
443
468
472
408
319
301
294
302
299
303
315
312
307
324
323
322
332
333
167
575
356
341
334
346
354
359
392
415
450
461
426
324
276
269
262
260
271
265
270
269
261
268
272
260
261
267
83
521
277
254
260
263
266
273
306
343
367
379
348
249
204
208
213
211
220
227
229
239
236
269
257
267
272
273
86
582
313
296
300
314
332
339
363
412
440
453
434
344
292
296
298
310
315
325
329
332
336
364
353
355
361
361
247
565
381
376
379
384
393
407
434
465
502
505
472
381
329
332
322
336
345
344
347
345
354
356
353
354
355
193
633
392
357
362
360
369
380
401
428
465
475
449
362
298
297
290
299
300
306
310
310
301
331
320
319
321
302
305
475
331
329
330
330
345
362
384
421
445
450
391
311
281
282
284
296
293
291
308
304
319
319
315
317
325
169
595
365
330
336
341
345
363
384
410
447
461
442
358
297
287
294
290
311
300
311
303
319
317
316
332
321
149
556
346
319
327
338
345
361
379
418
448
459
422
330
276
276
278
288
296
301
289
304
323
309
312
319
276
342
445
325
325
323
331
347
357
396
424
443
449
374
292
275
276
281
288
293
288
290
303
314
303
314
307
251
415
416
314
315
324
325
332
355
382
408
435
426
351
266
251
254
257
248
260
259
255
255
286
270
264
264
245
256
413
278
270
280
274
290
308
337
377
403
414
333
257
232
230
236
252
256
259
268
273
279
317
298
304
305
296
266
484
319
323
327
332
349
367
398
439
470
471
423
326
304
299
312
306
325
319
327
347
350
341
351
346
171
657
387
357
354
368
374
389
413
448
485
498
460
364
314
310
312
313
316
324
330
322
333
351
331
338
342
273
483
429
350
347
347
356
369
381
419
443
466
467
388
312
293
299
302
294
313
306
313
306
317
338
325
327
333
313
274
492
334
332
334
342
353
361
389
425
442
456
400
316
280
271
274
283
289
288
283
289
312
301
299
299
304
148
537
320
301
313
316
322
339
361
391
422
429
380
293
241
245
249
248
248
255
251
254
255
275
265
268
272
268
179
481
287
287
287
296
308
320
345
387
417
430
385
293
260
266
268
276
282
291
298
302
298
332
323
315
326
313
296
488
347
350
343
354
368
378
411
447
472
483
419
330
301
299
300
308
315
315
320
323
322
341
329
331
336
276
447
447
341
343
351
354
365
382
412
452
483
479
409
319
302
303
300
305
308
316
319
323
314
340
331
331
333
335
150
632
356
341
339
349
348
372
395
418
457
467
451
353
298
288
296
295
302
302
305
306
320
321
317
318
316
179
559
374
321
329
330
346
353
378
400
426
451
438
354
286
270
277
283
283
294
292
298
295
295
319
303
310
314
252
422
416
312
313
311
319
329
340
365
403
424
422
362
273
250
242
251
240
255
246
242
260
266
252
256
260
121
482
302
260
252
261
273
279
294
338
373
384
377
294
227
219
225
228
230
254
250
253
268
276
278
282
289
153
539
357
302
316
332
329
348
373
414
445
464
456
373
300
301
308
307
315
317
325
321
350
345
341
346
348
199
587
368
357
365
363
374
390
415
449
478
490
449
349
309
318
318
320
330
324
331
345
347
344
352
354
215
595
396
358
354
360
362
381
393
434
467
470
460
373
308
297
304
305
315
314
311
324
336
329
326
328
238
503
404
334
338
352
347
361
388
406
442
472
452
366
300
277
283
296
290
297
291
302
314
307
308
316
197
553
370
322
324
336
333
352
367
402
430
456
442
351
291
278
289
286
292
294
298
308
314
314
309
316
180
572
364
324
329
333
342
356
380
407
439
459
434
345
285
280
284
287
290
295
303
299
320
311
321
321
306
235
501
335
325
328
333
344
369
383
425
453
456
400
312
276
280
287
286
291
295
296
312
316
313
312
317
208
551
380
329
322
331
337
349
367
402
434
456
445
358
287
286
287
287
289
294
299
303
314
312
312
314
314
242
437
401
319
323
327
328
344
364
380
417
440
440
360
276
257
260
260
269
264
275
268
277
290
284
284
290
195
475
360
291
291
295
307
319
328
363
400
417
409
337
251
243
250
248
250
265
257
259
282
276
278
276
282
110
530
312
293
296
300
312
326
359
392
433
438
401
308
271
264
269
284
279
291
289
299
323
314
317
320
274
400
435
339
342
348
355
370
391
422
453
485
477
401
326
308
304
314
316
315
320
322
324
346
340
334
345
347
157
641
366
354
355
360
373
373
400
437
465
484
440
349
305
302
297
303
302
311
315
320
336
328
330
325
333
163
576
351
337
335
337
345
355
386
417
446
452
410
311
265
262
258
255
258
266
252
271
276
266
261
266
92
539
299
267
271
287
286
302
331
355
397
409
382
293
228
242
241
241
257
261
257
268
285
287
288
292
290
119
564
327
297
306
314
328
338
364
398
430
444
400
308
257
262
269
259
268
277
276
304
297
287
302
298
129
546
337
306
321
320
332
346
375
408
442
456
412
316
278
272
281
285
293
297
289
325
312
314
318
325
143
608
355
336
339
344
357
375
395
428
469
481
424
330
289
283
288
288
294
293
287
298
308
297
303
300
181
523
358
302
305
305
312
332
348
382
420
439
423
334
268
258
256
270
271
276
286
290
314
294
310
310
278
370
429
334
324
338
346
357
379
412
444
475
471
393
319
295
298
311
308
314
319
320
353
336
345
344
311
380
477
363
358
369
369
391
391
435
471
494
489
423
334
326
312
317
318
324
324
337
347
338
332
336
190
580
378
332
337
338
342
352
373
411
434
447
419
331
272
264
270
269
274
276
274
294
294
295
297
308
199
517
365
311
308
313
325
337
357
384
422
439
424
348
266
254
252
253
257
262
256
279
270
274
263
259
116
468
284
264
264
278
282
291
321
359
383
388
340
245
216
222
220
234
232
246
254
269
261
270
278
147
539
337
298
309
313
325
344
370
414
450
459
442
343
302
294
305
308
316
321
327
346
339
346
351
284
477
438
365
362
369
377
393
410
440
482
498
488
401
330
317
317
320
327
333
332
348
347
344
340
350
228
537
372
363
360
363
379
391
416
458
481
482
425
327
299
305
295
305
309
307
324
334
323
334
324
170
611
363
336
326
341
348
362
386
418
454
468
433
333
287
294
288
288
293
295
296
321
313
312
314
316
194
517
343
324
328
336
349
356
394
423
451
467
399
303
280
284
276
284
286
299
291
316
311
320
306
307
172
535
336
328
329
335
342
358
388
422
447
464
404
311
275
281
281
293
289
290
307
317
304
308
311
261
408
417
325
324
334
328
346
365
398
432
452
448
373
285
285
279
290
288
291
297
295
321
310
308
322
312
231
498
340
328
336
341
349
363
385
423
445
451
385
300
264
259
256
264
263
252
267
269
258
255
257
90
506
292
242
243
246
245
260
283
319
346
359
320
227
166
177
171
181
183
189
188
218
212
220
221
226
51
510
264
255
266
280
286
308
347
376
421
437
397
301
272
283
288
290
305
307
328
339
347
348
353
262
532
435
372
378
389
398
413
428
472
505
519
507
418
353
345
355
348
357
366
361
374
382
374
380
382
234
632
424
381
377
391
388
416
420
457
487
504
476
388
318
324
312
316
325
316
316
333
334
327
337
324
269
501
340
334
334
336
356
357
391
426
450
453
376
290
272
265
269
271
262
274
282
276
283
276
282
160
468
297
286
286
297
300
319
343
379
399
412
340
256
225
225
231
234
242
242
259
262
262
270
253
163
461
286
288
292
303
314
330
369
403
432
447
374
287
277
276
284
288
294
297
300
314
315
321
333
216
545
400
343
349
346
358
374
391
425
464
481
460
373
310
308
309
304
319
314
318
318
335
335
339
346
228
541
409
355
349
357
358
376
393
424
458
476
450
376
300
291
305
295
301
313
304
327
329
323
323
324
186
529
340
339
344
351
358
365
382
431
446
448
393
318
281
296
289
291
298
305
330
322
316
318
321
139
582
346
321
342
341
352
367
387
426
455
471
411
308
295
289
291
281
292
303
324
306
308
314
267
421
433
316
317
319
324
345
350
372
412
424
421
322
250
229
231
216
234
220
218
240
227
208
216
188
211
329
208
210
208
211
229
238
264
300
319
316
251
167
147
153
156
167
179
175
186
209
202
207
214
238
59
455
281
252
269
281
294
312
350
380
417
424
407
322
277
287
293
307
310
322
331
356
349
351
361
355
214
599
396
392
390
407
415
435
464
494
525
533
478
400
364
361
368
374
367
378
406
395
391
388
395
245
597
423
394
412
405
421
425
445
495
498
518
451
363
327
333
331
341
342
331
339
354
349
345
344
282
452
437
347
351
355
359
372
377
415
449
467
447
375
300
289
290
305
292
301
298
323
314
313
319
314
190
514
336
326
332
328
345
358
386
410
450
430
381
293
254
266
261
262
276
269
267
301
285
291
289
280
190
505
304
299
308
307
320
336
360
396
416
422
370
272
259
262
260
273
271
269
282
312
293
293
309
276
325
434
312
317
325
338
351
359
391
422
434
436
380
301
290
288
297
303
305
305
311
324
318
325
327
247
456
412
347
338
348
350
366
387
414
446
455
449
376
302
298
288
301
307
306
307
317
326
316
317
332
211
514
389
327
330
331
332
344
360
382
414
423
396
321
254
251
248
240
240
242
242
237
269
255
245
255
227
235
397
262
259
265
275
295
300
326
372
381
381
335
251
237
246
247
252
263
264
267
287
290
299
303
313
136
557
349
321
335
343
352
374
400
426
460
467
434
353
309
308
310
319
333
333
326
353
340
346
358
272
499
442
360
360
370
376
390
401
446
473
500
476
390
319
324
322
326
324
326
329
362
338
335
345
315
363
469
353
360
357
368
379
390
420
452
468
459
389
304
290
304
295
296
304
296
319
311
307
306
313
141
540
330
314
324
327
328
351
384
404
426
434
385
294
261
260
267
278
275
275
293
301
293
298
303
178
549
359
323
315
325
334
347
375
400
435
452
427
333
277
286
288
286
294
298
297
327
312
312
321
272
403
424
335
345
344
352
365
377
417
447
469
441
374
297
292
292
309
301
302
319
330
316
325
330
208
524
384
327
320
331
339
343
368
400
422
431
392
304
237
243
231
234
236
233
249
239
229
234
230
91
444
241
242
238
250
260
276
301
343
364
373
300
215
208
213
221
226
230
233
268
275
266
276
279
157
507
311
312
321
325
350
362
399
436
462
474
403
313
304
303
307
314
313
321
315
332
334
333
333
337
185
549
350
332
331
338
345
360
383
421
440
443
384
297
266
266
266
273
275
280
282
299
296
307
298
287
293
460
329
325
331
341
351
380
404
440
472
468
392
309
300
300
311
309
310
334
340
336
337
346
249
530
420
365
357
371
375
395
410
449
487
494
462
366
316
320
319
324
325
333
329
335
357
338
345
345
257
508
421
352
351
367
361
372
389
428
450
468
449
365
293
286
287
293
299
300
295
298
322
304
304
306
303
231
482
329
315
325
330
339
356
391
423
451
447
372
294
281
272
278
285
296
301
298
301
317
321
315
317
319
141
606
345
326
337
336
350
369
391
424
450
471
426
326
289
297
297
295
301
304
309
314
336
332
329
342
329
220
516
351
345
344
353
363
374
403
442
463
471
396
315
291
287
296
293
301
303
295
322
313
309
313
312
131
569
326
311
312
311
325
339
357
393
414
420
358
272
239
244
239
246
242
254
255
252
278
275
269
274
269
101
516
298
288
285
297
312
326
353
395
422
428
381
297
264
272
270
274
281
290
293
294
301
317
316
318
318
223
551
398
336
349
351
355
373
390
424
460
484
465
369
314
311
314
308
317
321
332
332
333
340
354
344
345
350
203
620
396
355
358
361
373
390
400
442
467
482
455
364
312
310
302
309
310
318
314
314
332
326
332
330
325
139
606
347
327
333
338
337
353
376
408
440
450
388
294
258
260
262
255
256
263
262
264
280
279
276
278
276
125
544
331
282
287
296
303
320
338
378
404
420
387
309
249
250
258
257
263
270
274
275
307
295
295
300
271
348
428
318
327
331
343
353
374
409
438
465
454
372
300
287
301
302
308
315
320
317
328
342
333
331
344
240
541
415
346
352
358
370
378
393
425
464
481
465
374
314
310
312
315
316
326
320
332
347
344
342
337
285
420
435
350
347
358
359
374
390
417
453
470
461
365
298
281
287
290
295
304
298
297
297
321
307
307
315
285
302
462
315
310
308
313
327
344
364
403
428
427
340
264
242
246
241
246
245
245
249
262
272
264
264
269
154
473
331
286
278
289
298
311
337
374
406
415
403
309
258
250
256
266
268
279
289
282
310
302
304
308
293
301
469
323
324
327
336
348
355
385
429
438
441
359
282
266
268
269
268
273
275
266
301
291
288
296
296
124
563
333
307
312
317
327
339
367
403
436
444
401
313
265
264
270
273
277
289
288
285
303
310
304
308
312
141
594
346
325
328
336
347
359
390
429
465
463
431
342
296
306
308
309
317
323
330
331
353
352
352
350
346
288
523
370
368
376
375
388
408
428
470
499
494
420
332
316
318
329
323
329
333
330
344
348
338
343
349
193
616
386
350
352
354
370
369
399
428
449
462
429
328
284
277
270
275
266
270
262
259
280
270
260
263
257
79
503
289
258
252
261
271
277
306
333
365
371
321
227
192
199
205
209
214
224
227
233
258
255
257
259
254
244
431
295
296
300
318
328
349
391
428
448
457
382
307
294
304
304
319
324
335
339
334
367
358
356
361
367
201
616
399
381
387
394
400
434
444
486
510
521
460
374
338
338
339
349
351
350
354
361
374
364
371
366
268
542
432
374
375
376
381
393
412
445
470
486
463
367
312
315
303
308
318
315
314
314
330
335
329
319
332
167
599
365
324
329
326
343
352
381
412
439
461
413
316
268
268
275
279
281
290
294
289
313
308
307
312
303
194
518
322
311
319
332
344
355
383
421
442
451
387
290
286
272
276
288
278
278
281
306
317
302
303
296
130
558
331
297
298
310
305
312
332
367
394
390
343
244
219
202
201
208
202
204
196
218
217
208
212
204
32
499
250
218
219
227
236
254
284
319
347
367
325
224
194
203
207
217
224
227
231
261
259
259
260
274
57
620
296
291
301
314
324
342
371
414
449
458
396
305
279
285
295
294
302
312
320
319
350
347
338
348
351
148
657
369
366
377
374
393
412
440
484
509
522
470
363
341
339
345
353
355
360
373
380
377
376
399
388
380
388
384
191
657
392
384
392
406
403
419
441
470
491
495
469
373
324
319
309
317
322
318
327
310
315
337
318
315
318
286
284
444
314
315
322
329
339
352
385
408
429
426
373
279
260
264
270
269
274
273
266
277
269
294
282
283
275
272
150
493
290
272
286
278
299
299
335
372
392
402
350
261
233
242
244
241
254
258
259
281
287
283
292
296
134
553
338
317
333
342
350
372
400
431
462
480
428
341
308
313
318
324
331
331
332
359
352
347
353
336
319
518
374
361
374
377
386
410
436
470
496
493
416
332
319
320
325
330
326
328
343
356
342
342
342
211
611
392
344
351
355
366
380
396
438
463
471
444
344
306
296
296
302
305
307
311
337
318
323
323
287
356
437
327
333
329
328
344
356
374
418
430
408
327
243
230
223
223
228
217
225
234
218
226
212
195
180
368
222
220
224
240
247
269
303
347
367
362
278
212
200
216
218
225
238
244
265
279
277
287
294
206
502
371
325
329
333
349
368
390
430
468
484
465
379
320
315
324
331
337
346
349
365
368
369
372
379
244
610
422
386
381
391
396
413
433
473
501
511
462
381
328
337
330
330
331
337
333
349
352
353
347
349
180
636
382
349
352
359
367
377
398
435
452
452
403
303
266
264
249
256
247
246
234
251
243
243
235
246
82
504
269
233
227
239
243
254
284
320
347
369
336
242
200
195
201
220
220
233
242
243
247
277
282
281
283
296
125
575
345
320
329
346
352
373
394
439
460
491
446
347
319
315
318
335
335
342
347
340
369
360
360
373
372
253
596
390
388
396
395
406
422
455
486
514
516
444
360
332
344
342
345
349
360
352
354
370
371
365
367
372
227
625
418
369
370
378
385
395
416
449
488
483
465
371
310
306
315
306
319
311
316
313
328
326
322
328
324
160
562
346
326
325
338
355
359
385
433
439
456
393
294
271
278
277
274
282
286
282
280
308
305
310
303
310
117
621
340
323
306
322
338
343
371
405
437
451
413
316
281
273
275
280
283
297
289
290
295
318
298
305
307
277
322
428
310
321
311
320
327
354
369
410
428
429
345
265
249
247
256
264
263
271
260
277
292
280
286
282
201
475
368
300
311
314
318
340
362
392
432
462
433
347
282
285
278
286
294
292
300
306
326
327
327
325
341
163
575
359
340
343
357
359
380
410
445
476
468
422
322
306
303
299
309
309
315
320
322
338
331
320
335
222
525
395
342
338
343
356
365
388
423
453
471
441
348
291
285
291
291
299
299
294
298
323
299
306
296
295
212
475
300
287
283
289
294
312
335
361
382
386
287
206
188
203
171
195
179
195
192
196
218
208
211
209
111
408
289
233
229
247
260
268
301
336
365
393
375
292
237
234
253
251
266
265
275
302
297
311
312
308
145
602
362
332
342
349
367
384
410
452
479
498
440
351
320
327
343
333
337
343
347
367
380
368
365
378
238
643
421
391
390
407
424
412
445
483
507
525
483
398
344
353
343
348
354
353
359
349
393
365
362
367
351
323
514
380
379
377
381
393
403
428
468
484
483
412
334
296
296
313
309
305
311
310
330
329
318
318
285
382
430
331
324
331
332
350
371
396
432
457
438
345
281
281
270
274
283
279
288
287
283
306
309
290
291
278
289
441
313
294
310
310
315
336
368
402
424
415
345
262
249
249
264
279
243
295
266
309
266
289
304
277
256
437
320
307
310
322
336
359
404
424
447
439
372
285
279
284
277
278
301
286
283
325
316
306
309
307
138
562
325
307
307
310
311
324
358
407
401
394
334
245
216
223
206
209
231
214
210
222
223
225
212
225
86
466
286
228
246
237
248
272
295
333
383
379
359
267
220
210
231
243
238
260
266
279
309
288
310
324
313
207
560
346
355
358
359
378
399
429
465
497
517
436
361
345
359
341
365
348
378
353
381
374
375
395
375
275
589
454
395
386
419
418
435
447
463
507
512
491
389
341
342
337
331
331
337
352
326
361
363
341
350
352
205
577
374
349
356
361
368
394
407
443
466
472
397
315
292
297
300
313
303
311
307
312
320
331
330
322
348
241
489
394
333
328
331
351
372
382
410
439
461
450
355
292
278
279
292
282
295
288
305
315
321
317
316
322
162
571
381
311
319
339
333
367
378
416
439
448
406
333
277
265
288
281
279
298
290
289
296
304
305
301
298
261
412
395
324
301
313
322
334
355
394
425
437
430
347
274
279
267
280
279
279
294
314
295
299
333
316
308
325
250
441
416
349
332
350
348
360
376
401
443
453
453
372
284
277
291
289
297
310
305
301
320
321
325
322
322
200
616
379
331
328
338
337
367
383
412
451
484
432
358
287
291
295
297
291
311
310
304
302
311
320
303
154
660
339
309
302
302
288
325
332
357
393
381
376
250
210
183
166
192
183
195
194
184
200
207
222
237
227
0
473
208
181
187
190
195
223
249
284
303
315
276
190
168
159
177
176
193
203
239
235
244
253
248
130
460
284
286
300
311
334
356
382
409
441
448
396
310
298
313
318
318
327
324
359
347
345
348
351
229
619
367
371
373
386
398
416
440
475
493
493
442
365
347
349
362
357
368
382
393
381
382
394
273
661
459
394
395
396
410
421
437
465
485
491
478
391
350
342
343
335
343
337
349
346
343
342
342
182
530
364
335
339
344
348
356
378
400
413
419
387
305
285
267
276
298
272
286
291
288
294
304
200
475
369
315
315
325
335
351
370
398
418
422
408
332
288
294
293
299
306
310
331
316
321
328
257
453
404
341
342
349
354
368
395
419
445
453
440
363
309
307
311
316
315
335
341
329
331
334
252
501
399
346
346
356
361
373
393
421
443
450
432
346
301
302
302
303
307
327
327
324
325
326
202
502
353
338
339
348
352
370
395
421
433
431
383
304
288
291
296
304
307
315
315
315
317
286
369
405
330
326
330
339
350
370
396
425
438
424
345
285
281
288
292
293
296
301
307
310
319
287
310
428
326
320
326
333
346
371
387
423
436
427
347
285
282
284
287
293
293
303
297
309
305
313
309
200
480
334
317
315
326
336
348
371
397
418
413
360
274
261
258
264
266
266
266
277
281
278
281
283
159
509
330
293
298
302
310
327
348
381
409
418
385
302
262
266
272
277
283
291
296
298
306
329
313
313
319
249
498
387
332
336
340
351
369
384
417
449
461
458
369
306
304
300
306
310
317
314
314
342
330
330
330
328
201
508
345
336
337
340
352
368
398
428
444
442
387
311
284
289
292
292
302
305
306
304
317
321
315
321
325
185
559
352
330
330
334
344
353
373
401
422
429
396
316
269
272
267
279
280
280
280
283
294
293
293
294
282
277
407
317
310
317
326
336
354
382
415
429
427
367
296
284
286
294
298
305
310
310
319
332
323
325
326
254
487
389
335
336
337
343
355
373
403
431
438
418
332
277
273
273
273
278
279
282
285
279
307
296
297
299
279
313
415
316
315
318
331
340
361
387
422
445
437
369
293
284
287
295
303
309
315
320
320
346
333
335
338
297
412
430
349
350
356
365
376
395
427
461
473
463
383
315
306
308
312
317
320
323
322
344
335
333
335
336
185
566
353
339
342
349
356
372
395
426
450
456
390
307
285
286
287
290
288
291
298
295
295
316
301
303
305
248
422
386
307
308
312
321
330
352
382
417
436
429
344
277
267
269
275
277
284
288
285
294
320
311
308
318
313
199
504
342
332
333
344
354
374
401
435
459
460
404
322
296
299
298
306
313
311
323
343
322
327
331
315
360
447
348
346
353
356
373
384
422
464
476
473
386
343
330
325
333
334
324
320
357
339
327
319
321
192
558
341
326
337
340
350
360
387
421
446
454
386
302
292
295
299
303
305
307
317
337
319
316
323
297
363
422
330
327
338
340
352
370
398
431
450
440
358
296
289
289
288
290
293
297
321
311
305
310
307
209
485
320
309
311
319
322
330
360
387
404
399
331
252
234
229
233
229
231
234
234
234
235
254
244
244
250
243
208
384
266
259
269
275
288
311
337
372
398
402
353
274
248
256
262
264
277
275
281
277
306
302
307
305
312
186
518
335
322
327
328
351
365
390
429
455
463
389
317
304
313
316
312
319
328
332
334
339
356
350
350
353
335
336
514
373
367
377
379
388
406
432
463
485
484
416
341
326
330
322
321
325
328
313
307
338
312
306
310
287
229
445
286
281
279
276
283
297
315
346
365
355
285
204
183
182
188
195
192
203
197
205
230
225
222
235
159
397
331
256
270
280
291
311
337
384
407
430
421
350
285
287
289
310
315
319
328
336
336
365
372
353
370
352
366
531
389
393
393
414
425
436
467
498
513
521
452
367
350
349
353
360
370
365
366
369
386
386
369
378
374
195
654
404
369
365
372
381
398
415
441
472
469
444
343
297
291
305
299
300
301
303
302
315
313
309
310
310
99
657
335
314
321
326
331
350
377
417
441
458
411
323
271
272
284
288
282
299
299
300
313
315
314
315
318
170
651
355
329
325
331
346
367
380
420
452
469
445
346
291
292
291
303
296
308
308
318
323
333
321
326
338
227
548
404
337
338
345
353
366
383
412
450
462
443
359
297
294
298
293
304
305
312
308
306
317
328
320
321
322
213
508
386
329
329
337
346
362
378
403
432
442
431
357
288
299
290
291
301
292
310
298
312
328
315
316
326
174
555
354
319
328
336
339
359
375
411
426
431
411
317
279
287
284
291
295
294
298
325
302
312
312
298
301
431
324
321
331
330
336
355
382
415
432
428
364
288
277
285
294
297
302
298
324
312
315
317
328
173
516
345
328
332
339
350
375
391
428
436
446
388
310
293
296
307
307
310
311
337
326
321
324
323
249
474
344
335
343
347
364
379
405
432
447
448
381
314
295
298
304
309
309
309
328
327
324
327
327
175
580
364
347
333
336
364
384
398
399
435
452
434
307
283
282
289
287
300
302
316
312
315
324
315
132
587
350
344
329
347
343
369
386
425
446
453
387
307
292
285
286
282
300
308
307
319
313
321
324
147
559
345
342
330
336
351
364
398
423
450
448
384
304
295
272
299
301
300
308
305
317
310
327
240
451
404
331
336
337
347
362
380
417
435
455
426
342
274
283
289
292
305
298
299
307
312
312
315
315
172
547
340
325
330
333
353
365
395
432
443
449
381
301
284
291
291
291
303
307
301
307
314
317
318
255
442
407
332
332
338
339
352
372
403
436
446
421
344
283
285
288
289
301
298
295
301
307
317
315
312
170
540
345
333
337
340
358
367
404
434
457
463
390
304
281
284
290
296
295
300
310
310
320
332
322
327
320
259
485
411
333
332
337
350
361
371
408
443
455
448
360
294
288
295
296
299
292
303
308
312
313
329
326
323
328
298
350
441
337
337
338
343
356
370
399
432
450
443
378
306
292
292
295
300
309
306
309
315
316
321
321
319
325
179
526
351
331
331
339
345
360
388
409
437
442
393
309
274
279
284
285
292
294
297
291
300
306
304
308
314
157
567
342
322
322
333
334
352
370
406
440
444
399
319
286
287
289
295
297
308
307
305
310
320
322
323
327
330
208
522
347
335
343
348
355
373
400
428
456
455
396
316
296
294
302
302
305
313
314
316
315
326
325
329
330
279
427
420
336
340
342
351
360
378
406
442
452
449
358
296
295
292
295
304
301
310
313
310
317
320
332
327
328
334
330
218
530
345
337
337
346
354
367
392
423
445
451
400
323
299
294
296
299
304
312
312
308
315
323
322
325
328
188
561
364
333
332
341
351
359
377
411
445
461
424
336
285
287
296
291
297
308
305
314
317
312
323
334
323
323
331
203
606
374
336
343
340
352
364
385
406
441
452
442
358
302
299
301
297
302
305
315
317
326
326
325
331
329
211
527
396
346
322
333
356
354
380
418
430
457
425
344
290
295
293
292
309
309
309
317
316
331
333
326
330
332
209
502
346
344
340
346
354
370
398
427
441
450
396
316
288
288
295
303
296
306
309
315
328
322
323
332
218
509
388
364
373
305
344
362
385
431
505
476
431
347
274
248
274
260
277
297
278
280
315
313
301
322
317
116
655
340
326
335
339
358
365
382
422
462
471
437
337
302
295
298
302
308
310
305
333
324
322
327
326
151
572
354
333
337
339
340
353
381
419
435
447
392
282
277
285
289
291
304
296
305
309
304
330
324
325
318
324
135
643
320
333
342
308
347
359
393
422
446
464
408
326
313
295
275
288
297
289
302
302
300
302
325
319
318
306
317
173
449
319
312
309
312
317
331
350
371
388
393
363
273
246
235
228
237
238
231
235
238
234
258
252
250
249
247
88
446
269
252
257
258
273
283
305
342
364
372
321
237
208
210
211
216
223
229
234
262
255
235
274
254
154
407
287
286
289
301
318
326
368
391
415
424
372
287
277
280
293
300
306
313
311
336
338
331
338
343
160
659
377
349
352
364
366
390
407
436
472
483
446
349
316
311
310
314
320
313
320
339
321
304
304
293
213
466
311
300
308
313
324
342
369
389
410
404
357
271
258
253
270
260
266
258
264
266
281
276
276
285
279
58
619
323
301
298
313
330
341
369
400
430
448
417
330
284
289
295
295
315
312
314
327
343
324
332
342
246
539
419
343
356
356
362
380
400
429
462
480
482
379
321
319
321
331
323
331
341
344
363
346
359
354
337
308
505
372
365
365
377
391
410
425
464
478
484
422
341
320
320
325
324
326
329
347
356
343
338
342
224
532
397
351
342
346
359
364
378
403
423
426
408
310
263
246
250
248
243
242
225
253
239
228
235
225
55
443
238
226
217
228
232
250
271
318
328
328
282
188
174
185
184
196
201
205
217
241
233
245
251
244
214
417
287
285
302
307
325
350
386
418
447
434
366
288
281
291
302
303
316
320
325
348
355
351
358
374
229
614
417
386
387
395
399
415
443
468
500
513
488
388
344
348
349
348
355
359
362
361
381
381
378
369
371
221
661
405
368
377
382
386
394
416
449
480
496
465
373
332
319
324
324
326
327
329
338
341
336
341
334
222
498
351
335
343
348
353
369
386
418
440
431
363
288
264
271
271
279
279
285
279
281
280
294
294
297
277
286
415
311
296
302
310
326
337
369
394
416
411
349
272
256
261
265
270
281
285
283
287
296
304
308
298
308
211
500
328
324
325
331
347
363
390
428
454
459
390
306
295
295
302
297
311
315
321
324
323
328
337
338
344
322
317
486
350
346
352
359
373
381
415
442
464
467
401
315
305
300
302
310
308
319
322
321
318
320
331
336
333
290
409
443
351
348
346
360
365
380
412
443
463
451
375
302
281
286
289
291
298
302
300
301
304
305
308
304
310
160
543
358
311
306
317
324
331
355
387
416
432
399
311
261
258
263
267
274
280
284
293
290
288
316
309
309
308
311
152
562
340
325
331
336
348
359
386
423
451
463
406
318
292
300
299
301
307
313
313
325
321
332
335
341
338
341
348
203
589
395
341
353
356
364
379
403
429
463
476
455
364
305
301
301
304
310
314
316
320
321
320
322
346
330
328
331
332
172
574
352
337
344
345
346
369
386
432
454
463
416
323
288
290
293
299
299
312
306
309
313
307
336
329
323
321
327
169
561
348
339
334
342
350
368
389
422
448
460
413
317
281
283
277
282
287
286
291
293
290
312
299
297
295
298
126
542
318
303
308
307
321
338
359
398
426
442
386
294
258
264
268
273
274
282
287
289
302
298
295
322
310
307
314
314
189
540
337
327
328
332
344
364
384
418
449
454
416
323
291
302
291
306
307
310
320
324
325
325
327
342
336
344
339
346
199
607
385
353
351
359
363
380
400
434
453
475
459
371
314
301
303
306
311
315
320
321
318
332
333
327
328
330
187
588
373
339
339
342
350
361
382
410
442
462
430
337
292
287
292
294
300
304
312
308
312
330
320
322
325
302
332
452
332
336
334
340
351
368
397
431
453
456
384
307
289
294
290
294
298
303
302
305
331
321
322
325
322
227
488
342
328
334
342
350
364
389
425
446
451
398
306
281
280
285
289
289
297
292
297
316
304
307
310
276
363
433
322
320
326
335
345
360
393
427
455
441
367
290
284
286
281
287
290
301
293
306
316
306
314
320
166
554
356
317
321
330
338
347
372
401
434
443
414
323
271
277
277
284
282
288
293
303
288
318
312
305
306
316
106
658
330
315
318
330
332
358
374
402
433
450
419
318
274
283
270
275
277
282
287
287
309
292
299
295
303
92
597
304
296
293
304
310
328
351
378
414
419
368
271
242
245
235
244
251
251
262
259
269
277
269
276
287
200
474
351
293
292
301
312
307
331
359
395
407
400
319
249
239
238
246
253
241
248
277
263
264
257
274
126
441
299
276
276
293
293
311
325
361
379
388
359
270
238
245
251
256
260
270
267
295
289
288
292
301
138
648
338
315
320
329
336
355
382
410
446
464
435
343
303
305
305
311
315
315
329
353
340
337
347
337
299
519
358
366
373
379
386
406
436
466
481
480
413
331
311
319
314
319
322
315
331
328
323
326
328
194
540
370
324
323
329
337
348
368
398
418
434
412
324
278
278
279
283
291
285
287
295
299
302
309
240
406
390
316
306
310
321
333
350
365
398
415
401
324
265
265
271
248
262
252
257
272
278
286
284
292
161
520
355
314
320
328
331
353
379
420
450
461
443
346
306
303
309
314
319
324
328
351
341
344
346
316
392
468
360
354
364
377
378
398
436
460
489
473
394
325
315
321
320
332
324
325
340
344
341
351
343
190
569
375
360
360
363
375
393
414
442
469
466
413
331
312
309
308
315
312
328
324
328
338
337
340
344
244
493
362
350
352
355
366
391
402
443
459
449
382
296
271
287
290
300
298
301
302
298
313
312
324
300
288
463
326
329
330
346
348
364
388
427
455
440
361
294
281
287
285
293
295
308
302
312
326
317
324
323
169
558
356
334
333
348
349
375
398
432
455
462
404
313
296
292
295
299
306
305
314
306
317
317
323
325
321
213
511
343
331
336
332
350
363
391
416
446
459
375
302
279
282
284
292
294
296
301
307
306
313
307
330
322
325
323
331
151
606
343
336
330
346
346
360
380
422
440
459
415
332
293
290
290
299
301
303
312
313
312
321
319
323
330
175
576
363
336
336
343
349
367
388
424
451
462
412
323
286
291
290
293
295
303
308
309
312
315
316
314
330
329
323
331
294
375
440
338
339
339
346
352
369
397
430
451
452
391
310
293
293
295
300
305
310
312
316
316
315
319
331
328
330
330
227
531
391
341
339
337
353
359
380
408
442
460
445
363
301
291
289
292
297
305
305
304
308
313
310
319
318
326
300
328
448
335
336
336
346
353
364
392
431
456
444
377
301
285
288
283
295
293
302
300
304
305
308
315
311
325
322
327
325
269
441
414
334
340
334
342
354
371
393
433
449
453
383
307
289
289
296
298
305
307
310
313
315
314
330
327
332
338
336
181
546
360
336
338
347
354
377
395
427
455
466
424
334
291
293
289
294
301
310
305
307
312
310
323
319
322
286
379
435
329
330
337
344
352
368
400
431
456
448
368
292
288
288
288
295
297
300
304
313
313
317
317
323
328
334
333
339
236
535
392
336
345
344
349
363
382
407
443
455
463
382
310
300
298
306
302
310
312
317
324
320
333
335
331
229
513
397
345
337
344
346
362
379
406
443
466
436
347
279
284
285
289
297
294
302
301
304
306
313
321
316
325
300
328
452
335
329
334
341
348
369
389
430
444
458
393
300
287
301
297
294
301
306
310
314
313
303
327
335
331
196
562
376
342
336
336
344
359
379
411
444
465
449
353
296
295
299
301
310
322
320
327
337
327
334
335
331
146
623
379
336
338
346
355
358
391
423
454
464
423
328
284
280
287
286
290
297
297
302
306
316
314
314
320
157
610
354
323
329
337
338
357
376
411
448
468
430
335
283
294
296
292
287
299
315
306
316
327
317
330
332
200
558
383
346
340
352
355
370
387
422
454
475
453
353
302
291
297
293
298
304
303
301
314
317
310
315
317
173
532
331
329
329
333
354
354
387
427
453
463
392
300
275
284
286
290
288
296
305
293
321
318
315
322
323
152
612
351
331
337
334
347
359
380
414
455
466
426
327
295
290
298
295
304
303
310
313
332
315
324
331
282
407
423
346
337
340
348
367
371
408
441
468
461
372
301
289
292
295
298
307
303
316
336
318
316
321
321
230
491
341
336
333
341
349
372
397
428
454
456
384
301
282
286
284
293
293
297
296
314
315
313
314
328
168
603
368
329
332
339
345
358
379
408
443
462
434
331
286
292
292
296
303
305
299
318
323
321
318
323
226
506
395
333
336
347
345
364
382
410
450
467
444
351
293
287
286
297
297
305
298
308
331
310
318
324
298
284
466
336
326
325
342
345
361
387
416
442
439
373
287
277
276
272
282
284
284
286
297
302
298
301
304
268
369
417
336
307
315
322
331
353
386
424
437
437
356
287
275
277
279
287
290
287
317
312
309
314
323
164
560
357
328
333
347
351
368
392
425
457
474
426
331
299
299
299
303
316
310
323
340
330
324
332
279
416
413
340
330
336
345
347
364
388
421
436
431
331
265
253
252
254
255
257
251
258
272
260
266
261
166
453
329
263
274
279
276
294
319
349
379
401
380
287
234
232
231
237
238
246
251
256
273
277
270
283
216
437
319
311
328
328
337
364
388
430
449
472
392
313
302
306
324
321
325
328
341
342
345
345
348
181
603
377
353
354
355
374
383
411
440
473
477
434
349
304
309
307
311
315
309
319
320
332
330
341
302
380
450
344
348
344
353
363
376
406
444
458
455
360
299
295
289
297
300
299
310
309
311
314
319
325
286
395
421
341
332
337
345
356
381
403
442
458
451
366
292
288
291
296
298
304
312
309
322
330
324
331
334
185
594
374
343
343
347
357
368
390
423
450
463
433
338
292
293
291
296
300
302
309
304
308
313
316
317
326
191
561
371
334
336
341
348
360
376
419
439
456
436
340
290
296
302
298
296
305
314
313
322
311
317
338
329
333
342
279
431
431
344
345
341
357
369
388
409
437
459
462
395
305
292
298
293
303
306
307
313
324
321
326
328
181
572
374
334
336
342
351
362
384
418
444
463
414
309
279
285
280
284
286
290
295
296
297
299
310
311
307
313
313
165
586
354
321
328
334
337
347
370
410
433
453
433
344
289
286
285
291
292
298
304
303
313
328
323
323
328
256
460
407
341
337
343
353
366
385
415
452
475
459
370
301
294
296
301
303
311
309
324
313
316
351
325
336
336
316
289
470
347
341
341
353
356
373
396
432
456
459
388
294
280
276
274
280
283
287
283
290
280
308
296
295
298
304
127
550
321
304
305
311
323
338
363
401
431
444
393
299
266
270
270
276
277
284
292
294
296
297
320
310
311
319
315
168
551
341
336
331
345
353
371
387
425
457
465
418
330
293
289
296
297
303
307
315
317
321
327
324
343
337
333
333
328
252
508
356
343
341
352
363
381
407
442
470
479
422
330
296
301
298
300
309
313
314
313
319
319
339
322
326
322
276
387
418
322
320
327
328
335
352
382
415
443
430
357
267
247
247
250
254
255
253
262
251
270
272
263
266
272
127
533
313
273
274
289
287
309
325
365
397
426
393
301
248
246
250
260
262
266
271
279
294
305
301
309
306
248
431
406
334
332
340
340
359
384
409
453
473
469
379
313
300
312
303
313
319
324
319
318
342
337
335
338
345
172
609
386
338
349
355
368
375
403
428
460
490
445
349
295
305
293
293
308
309
313
305
328
328
325
328
329
201
575
371
336
331
341
345
361
377
407
442
470
441
350
289
293
290
297
300
302
303
310
303
331
327
325
325
336
158
611
357
338
335
346
348
373
392
422
455
471
439
336
292
293
295
297
302
308
309
313
304
332
321
321
324
321
183
544
342
335
332
348
349
371
386
421
453
453
410
317
292
291
288
299
294
309
303
304
304
330
320
321
322
329
153
596
355
325
336
347
361
361
387
420
454
470
435
349
291
298
299
301
303
310
308
306
336
325
321
324
326
165
577
358
334
337
346
347
365
386
418
445
463
429
322
281
287
289
291
288
302
306
300
302
300
326
315
311
318
296
305
461
320
316
318
325
338
352
379
410
422
441
370
283
266
261
261
263
271
269
270
272
273
292
280
283
284
287
163
485
304
296
301
303
318
338
364
392
421
439
390
289
261
263
271
282
279
287
287
285
314
303
307
309
304
212
492
330
323
324
335
347
361
388
424
450
454
398
305
280
279
286
286
285
292
293
293
289
304
304
298
303
304
141
596
332
302
298
307
315
319
345
374
410
424
401
316
256
253
257
262
261
273
274
283
284
298
304
300
305
309
176
550
366
320
327
329
344
359
378
408
442
458
446
357
294
291
290
306
300
311
312
320
316
326
337
335
330
336
247
509
410
344
342
349
357
375
386
418
450
479
460
382
310
298
298
304
309
312
317
315
318
335
332
329
334
332
171
575
365
346
345
353
359
382
393
431
461
477
441
342
303
305
302
314
314
321
318
323
345
328
333
326
308
319
460
336
344
339
343
359
371
405
435
458
461
391
295
286
288
287
294
296
304
303
318
323
316
322
325
196
565
373
324
332
336
344
361
385
411
446
462
440
347
283
286
287
292
288
292
294
309
322
317
317
320
231
483
385
326
337
336
344
357
379
413
446
459
457
356
294
290
295
303
300
307
312
306
330
324
315
327
326
158
574
352
335
339
341
356
367
392
426
450
463
419
322
283
290
286
295
292
295
303
300
325
312
318
320
314
170
551
344
327
335
340
348
365
390
421
454
460
408
320
289
290
299
294
299
308
313
310
324
329
325
326
326
182
583
364
345
342
347
353
372
383
422
454
471
447
347
292
294
298
292
301
309
307
308
325
322
321
324
320
209
505
338
336
334
345
347
364
388
423
448
458
386
301
272
274
278
277
285
287
284
285
295
305
297
299
299
239
419
387
312
307
315
323
333
350
383
416
432
435
348
273
270
265
267
274
281
288
294
293
313
311
313
315
317
152
566
346
328
333
342
352
369
395
421
457
469
430
337
294
289
296
301
298
314
312
308
312
337
327
319
323
296
335
448
336
334
339
343
353
376
400
437
464
465
384
299
282
293
289
291
301
301
304
307
315
327
317
324
327
219
529
386
332
336
343
349
361
379
409
444
471
457
368
294
295
290
303
299
307
314
305
327
332
320
330
330
237
495
396
342
344
338
356
370
383
412
449
463
450
366
291
290
286
289
299
301
301
309
298
316
318
314
317
311
237
506
335
325
335
341
345
368
388
427
451
463
386
309
279
285
286
293
296
301
304
310
305
330
323
318
322
318
259
513
341
337
336
342
352
366
391
429
458
459
399
313
285
291
290
295
294
299
300
311
319
312
317
317
165
521
347
327
330
325
338
357
377
408
431
443
387
290
252
254
251
262
259
262
263
273
271
271
271
278
143
520
323
280
291
283
294
313
330
366
399
414
393
288
234
237
238
238
254
251
249
259
277
277
280
283
239
383
389
295
300
305
316
324
351
380
415
438
433
340
268
266
265
269
274
283
281
291
290
297
300
310
202
488
371
318
312
322
331
344
367
396
436
443
437
340
281
280
281
288
294
295
301
308
313
312
314
317
155
593
358
332
330
341
352
371
387
428
458
478
421
325
289
292
293
299
306
307
317
315
326
320
325
326
208
577
373
331
330
333
341
348
371
403
435
445
421
325
270
263
267
268
266
270
269
271
290
285
277
281
282
113
541
314
292
296
303
319
322
354
382
415
431
395
299
255
253
263
273
274
280
278
307
298
300
308
305
218
494
333
324
333
341
349
370
398
438
468
472
398
311
292
292
298
303
311
310
312
339
325
334
333
331
197
567
355
348
355
363
368
390
415
448
478
485
421
325
305
310
317
314
314
322
325
336
334
333
340
339
202
578
391
345
349
355
359
375
400
435
451
477
449
357
299
296
301
304
314
312
315
326
328
325
325
329
156
593
362
333
333
344
352
364
387
422
453
462
418
320
286
285
285
291
294
297
289
323
310
310
314
307
226
504
330
325
327
338
346
363
388
436
457
457
386
304
278
287
288
291
297
287
320
314
310
315
327
158
569
356
330
336
340
351
367
391
426
450
470
424
321
284
293
284
295
303
303
304
325
320
316
319
318
209
509
335
325
335
341
349
364
392
431
447
460
389
294
274
280
283
286
288
285
311
310
303
312
313
136
615
343
326
324
332
344
355
381
416
446
453
409
311
286
285
283
293
293
293
304
329
317
319
317
316
263
467
343
333
339
345
354
379
404
439
462
467
391
304
282
288
289
294
296
297
306
321
311
315
317
288
341
443
327
327
334
338
347
366
394
438
451
446
360
284
278
280
285
282
293
296
292
315
312
307
313
315
171
543
334
325
318
335
344
359
389
427
450
463
395
305
283
284
285
292
296
305
308
331
322
315
325
275
409
419
336
337
344
349
365
383
412
448
462
459
361
296
288
289
292
297
304
292
321
313
313
319
316
141
599
351
327
328
332
343
363
385
419
460
465
406
317
281
282
289
287
294
301
301
317
314
318
320
324
155
590
358
329
330
343
347
368
390
422
453
464
425
323
290
284
289
291
300
294
317
318
314
314
323
205
514
378
325
333
331
343
358
379
411
443
459
436
328
283
282
290
290
292
298
293
316
311
311
318
322
141
581
337
321
324
333
343
360
385
418
445
455
391
296
277
277
286
280
289
287
302
308
301
303
315
191
535
365
329
318
323
330
353
365
399
433
447
423
327
275
275
276
283
284
287
312
305
310
306
311
156
540
337
326
330
339
346
374
393
424
450
464
391
308
279
279
282
293
292
293
312
297
299
303
297
179
483
320
303
307
316
323
339
366
400
413
416
347
258
243
246
245
251
254
251
278
272
269
276
277
100
563
312
293
293
305
312
331
357
390
424
442
391
292
258
271
272
281
285
295
295
310
310
316
315
327
216
527
388
343
337
352
358
369
394
424
457
478
468
358
304
308
306
314
319
325
326
336
341
338
342
337
278
503
364
358
360
362
378
393
417
454
467
472
392
311
298
304
307
310
310
319
315
317
320
321
330
327
211
550
382
338
337
336
348
361
384
415
447
462
439
333
287
289
290
293
298
299
307
303
308
316
326
324
318
201
527
347
336
337
346
359
371
401
427
467
461
392
304
289
286
292
297
294
303
305
316
307
325
319
324
210
523
386
334
335
337
345
364
379
407
439
463
433
333
274
275
280
266
275
281
280
280
290
289
286
291
262
309
408
299
296
292
297
312
331
351
388
419
407
328
249
241
248
249
254
258
259
281
285
283
287
292
137
519
329
309
313
319
333
348
377
415
437
458
400
308
277
284
286
297
302
300
306
311
328
321
321
329
208
551
380
337
342
347
355
370
390
421
456
470
442
344
297
298
299
304
309
311
314
314
324
337
328
330
335
225
548
382
337
341
343
353
365
388
421
450
469
443
344
288
286
287
292
294
301
305
305
314
332
322
323
324
246
515
396
335
336
339
346
358
380
410
453
468
457
356
295
292
291
291
298
305
308
307
333
319
323
323
321
261
474
343
335
342
348
362
374
404
438
455
461
384
298
283
286
286
293
296
299
295
303
316
304
307
313
199
493
371
315
320
321
329
341
362
394
419
437
412
317
261
255
259
263
264
274
273
273
299
276
286
291
268
265
423
302
299
304
318
328
347
375
409
432
433
348
279
266
273
277
282
290
294
296
298
323
314
316
319
286
367
431
337
335
340
347
363
383
412
448
469
465
387
310
298
302
305
311
317
318
320
329
343
330
335
336
225
531
391
346
348
352
356
373
394
424
454
474
444
350
295
292
296
298
306
303
308
304
323
325
319
320
324
165
583
356
330
327
337
342
359
382
418
452
467
424
322
281
285
289
291
294
299
304
304
310
329
317
320
325
249
484
391
329
331
338
344
355
377
406
439
460
450
357
295
291
293
291
297
302
305
309
335
319
319
326
303
328
418
339
338
344
346
360
374
405
437
456
453
368
289
283
285
285
289
293
303
294
328
316
315
319
315
179
540
343
326
330
338
348
367
389
430
454
460
390
303
288
291
291
287
300
300
303
324
321
319
322
324
157
564
359
333
336
342
351
363
385
421
446
458
413
324
289
288
289
294
297
301
303
301
317
317
316
317
318
165
532
352
322
326
327
337
352
373
403
427
435
393
296
256
254
255
260
266
263
257
278
274
267
268
274
110
520
304
276
278
285
293
309
335
368
397
405
353
260
235
236
236
247
254
257
257
269
287
280
282
287
234
393
385
309
309
315
325
342
362
397
427
455
448
356
291
286
289
295
306
307
312
327
343
330
336
338
245
519
403
353
354
359
369
380
396
435
465
482
453
353
303
300
304
307
313
316
313
337
334
329
333
332
141
659
351
345
341
348
357
373
397
436
469
492
427
324
302
304
300
303
308
303
329
328
322
323
325
159
648
355
334
335
343
346
364
388
424
450
467
420
311
283
282
275
282
285
288
290
294
317
299
304
307
275
324
432
313
311
312
317
324
346
364
397
413
411
331
247
239
235
235
236
238
245
242
242
247
246
253
154
401
324
259
267
271
282
291
320
344
373
392
373
283
233
238
241
243
255
257
260
272
278
282
288
295
143
531
341
315
321
322
333
356
376
414
441
451
416
326
287
293
298
305
307
319
312
325
329
332
338
341
215
578
395
360
356
360
369
385
404
443
472
483
446
358
312
312
318
319
322
330
319
330
339
336
339
346
185
571
376
348
356
358
374
384
404
437
471
470
418
326
296
297
294
302
307
310
311
310
320
322
319
267
413
419
334
333
334
346
358
377
408
437
461
440
345
284
282
286
288
293
297
303
300
312
313
314
317
312
195
540
333
329
334
338
348
364
389
432
452
456
380
291
277
276
278
277
282
280
279
301
291
291
290
287
102
552
305
282
285
285
294
302
327
357
376
385
331
235
212
210
212
212
221
218
233
231
234
239
240
121
443
304
258
262
270
281
294
318
343
380
392
356
266
230
224
234
237
248
249
252
260
266
264
276
270
141
518
328
283
289
296
307
320
344
376
407
422
388
299
253
260
264
273
273
285
287
294
311
303
315
323
194
566
375
335
344
350
356
372
403
439
468
480
451
350
310
317
322
322
332
331
340
348
359
352
361
344
329
501
378
380
375
386
401
415
445
478
499
490
405
335
322
323
327
329
333
333
337
351
342
346
351
299
426
454
361
353
359
364
379
397
423
463
476
452
361
297
296
297
302
302
308
308
309
332
321
325
327
326
228
527
341
332
341
347
351
371
398
434
461
457
380
295
283
291
287
291
292
293
312
318
308
318
319
188
545
372
330
330
334
347
360
383
413
445
459
407
308
273
274
272
276
279
278
283
282
297
284
292
296
251
351
396
295
293
298
302
316
329
358
395
421
398
306
245
236
243
244
242
251
257
262
273
274
276
279
200
426
360
293
296
301
308
317
342
372
411
427
407
305
249
249
250
261
262
272
269
283
294
290
294
298
158
574
344
306
311
319
326
343
365
407
445
456
418
316
276
281
283
290
294
299
309
308
329
331
330
329
331
158
655
360
353
345
360
362
385
406
445
477
494
445
347
306
311
313
314
316
323
328
331
334
350
339
343
346
343
137
655
367
350
351
358
371
384
405
441
471
485
430
330
299
303
296
301
304
312
313
312
328
328
328
328
335
176
565
368
339
342
348
356
374
393
430
456
459
423
328
288
288
286
301
305
302
300
314
324
313
312
316
191
558
371
329
326
340
343
354
380
414
438
463
422
323
278
283
285
284
290
298
296
304
318
311
309
320
263
432
416
325
328
330
336
352
371
398
437
457
439
347
288
278
283
288
289
292
299
294
319
310
312
318
296
294
459
328
323
335
344
349
370
394
428
449
456
372
292
279
287
287
297
294
300
321
322
311
323
320
197
548
380
323
331
332
337
359
378
418
446
469
429
322
280
282
281
279
284
290
301
311
306
306
311
237
459
397
325
322
330
336
353
376
405
445
472
428
329
279
286
282
283
293
298
300
302
307
330
318
317
319
273
420
431
327
335
334
351
354
377
407
446
465
452
360
294
288
287
290
293
295
305
307
325
326
314
324
324
174
545
350
334
336
349
353
371
408
438
464
472
393
313
283
289
289
295
300
305
307
305
320
332
318
326
327
218
530
389
337
335
339
347
361
388
409
448
468
438
341
278
281
283
283
292
297
297
297
324
315
311
317
319
140
577
339
322
325
333
343
360
384
428
457
462
384
294
281
284
284
286
295
296
300
306
301
323
317
318
319
323
144
608
342
333
334
340
347
365
386
423
453
463
405
303
276
277
275
271
276
280
281
277
287
295
280
283
282
170
486
336
272
270
275
272
284
300
334
362
380
341
231
185
171
172
172
171
175
175
179
175
203
192
194
191
194
70
417
216
204
214
227
229
254
283
326
362
371
304
213
207
217
219
223
235
247
251
257
280
289
298
299
306
167
587
365
330
342
357
363
388
414
452
487
510
463
366
334
332
336
343
350
355
364
361
378
386
380
379
383
220
658
417
387
391
399
407
417
446
475
508
523
475
367
334
337
337
334
339
348
339
348
348
352
361
353
353
355
176
661
369
360
358
360
368
378
405
437
471
494
454
338
300
300
300
301
300
308
304
315
320
329
319
328
321
208
558
383
331
331
337
348
354
381
417
452
468
438
349
287
287
290
294
295
300
306
308
330
317
318
326
295
333
442
332
336
340
344
358
375
410
439
462
453
367
289
279
287
283
287
290
293
300
330
304
308
319
273
377
434
325
328
326
336
348
368
399
434
467
454
356
284
279
284
285
289
291
297
312
319
311
319
319
182
569
360
331
330
332
342
356
378
411
449
454
425
320
279
282
288
288
288
300
295
299
320
313
316
317
318
230
499
339
326
335
342
353
371
400
437
455
462
386
303
288
288
289
298
302
307
304
315
322
315
320
320
188
572
378
329
337
343
350
366
389
421
453
470
424
332
284
281
282
288
294
299
294
317
312
310
305
312
128
556
327
309
307
316
316
332
358
386
413
417
346
259
230
225
229
230
233
237
232
238
253
240
243
238
192
339
354
249
262
262
269
289
304
340
374
399
389
296
235
234
247
251
249
264
269
270
290
300
298
298
309
184
547
371
327
332
340
350
368
386
427
463
481
443
347
305
305
315
313
321
331
333
338
356
354
350
354
335
339
494
364
363
369
379
386
408
438
472
497
485
395
322
304
309
313
315
316
318
330
344
326
329
331
273
451
423
334
328
338
341
352
372
406
440
465
427
326
265
264
267
263
262
270
270
265
288
284
279
277
282
116
556
318
288
287
302
309
321
348
384
418
439
383
286
258
257
254
263
270
274
279
305
309
299
306
309
212
495
333
332
331
337
350
374
399
440
466
468
380
298
282
280
280
288
292
288
297
313
303
309
309
247
438
404
317
320
332
332
350
363
402
446
464
440
338
275
279
285
287
284
297
296
299
307
326
314
320
318
271
444
414
345
344
345
353
367
391
422
456
482
472
377
312
301
305
307
314
317
320
325
343
330
334
331
264
476
419
343
343
344
351
363
384
415
453
474
449
347
288
274
284
277
283
278
279
272
299
287
281
283
282
97
589
302
282
281
277
290
305
317
361
402
407
372
269
222
231
231
233
237
251
255
255
264
292
280
285
290
258
338
418
313
314
319
331
345
367
393
435
463
464
385
308
292
296
301
309
318
315
319
349
340
338
339
343
212
561
371
356
358
367
380
391
417
459
485
491
430
332
311
311
313
318
318
327
322
331
350
339
340
342
294
431
446
349
353
355
360
372
390
413
458
479
477
390
305
293
296
293
303
302
304
307
313
330
324
322
323
276
432
425
330
330
336
341
353
374
402
438
464
460
372
297
288
290
294
298
299
303
301
322
320
320
320
321
170
585
354
331
330
337
348
369
379
418
442
458
430
337
280
275
279
285
295
285
288
312
304
306
304
306
155
505
326
309
309
317
329
341
369
377
415
413
367
275
243
242
246
254
259
261
270
268
287
279
283
209
434
370
308
321
311
321
345
360
394
426
440
428
350
281
289
297
284
302
308
309
335
348
341
353
344
195
611
395
369
370
379
384
411
422
462
488
508
482
386
346
346
342
342
348
340
356
358
345
344
343
271
460
408
347
338
344
348
356
377
412
438
450
437
350
280
271
279
272
274
282
285
311
294
293
296
267
328
422
306
308
308
329
328
353
381
424
436
441
355
278
270
275
274
279
280
283
313
307
306
310
305
150
558
329
320
334
333
341
361
392
425
447
457
401
297
280
288
288
288
298
298
300
332
315
314
320
327
161
560
350
332
331
346
355
361
392
426
444
453
416
325
282
288
295
293
303
309
304
335
322
319
321
310
240
483
337
329
331
340
354
367
395
425
445
457
394
298
283
282
286
295
291
298
307
323
313
318
315
299
294
479
333
332
335
341
356
372
401
435
454
458
385
301
287
290
285
294
297
303
306
313
326
320
320
324
216
549
387
337
336
346
351
362
377
411
435
449
439
361
295
285
290
292
296
307
299
301
325
315
316
315
311
199
489
334
318
317
322
328
340
362
387
395
403
367
269
239
234
249
240
244
239
240
263
250
249
255
218
260
369
262
258
264
271
282
302
327
362
382
386
311
233
224
226
228
240
250
251
267
273
273
279
282
152
549
346
305
311
322
328
346
368
406
441
464
432
336
292
291
295
301
313
316
321
330
351
340
347
348
283
473
443
366
358
367
379
390
407
438
475
487
477
396
324
316
322
323
328
333
335
354
348
345
348
347
197
567
372
357
358
366
376
385
410
441
465
467
414
318
290
291
291
298
300
295
313
316
305
310
311
146
592
344
317
312
323
333
345
371
406
430
442
402
302
264
272
275
278
279
281
297
304
299
303
305
180
547
363
315
316
325
328
339
362
395
425
434
402
304
251
253
255
253
250
260
250
262
265
258
263
261
87
524
280
268
265
280
278
292
328
355
382
385
337
244
231
225
228
245
243
248
263
273
280
281
276
237
449
312
314
320
332
345
367
400
433
456
460
381
310
300
307
309
317
321
337
336
342
349
358
259
521
423
368
369
373
378
398
413
444
470
480
464
365
311
308
314
315
318
320
321
325
327
333
328
271
428
425
336
337
340
345
356
373
404
438
450
437
348
287
276
281
287
291
292
296
307
305
314
317
323
224
517
389
334
335
338
343
362
380
406
444
452
430
351
292
290
297
299
304
310
317
318
320
332
332
331
336
201
548
359
346
351
354
363
382
412
434
450
457
395
308
280
284
285
287
285
287
278
283
274
282
279
278
205
427
353
273
264
265
275
272
287
317
343
353
339
252
183
181
179
183
185
187
199
196
203
208
215
222
219
130
399
253
245
252
269
281
295
336
372
391
404
343
252
245
251
256
274
275
285
293
297
309
314
322
315
280
489
358
349
356
361
380
395
428
460
486
473
399
321
309
313
316
319
327
325
328
331
324
334
329
334
308
330
464
333
330
332
328
344
355
380
410
423
418
343
261
253
254
245
256
255
268
262
277
276
278
286
289
160
487
321
303
315
318
331
350
383
413
442
445
384
300
279
284
288
295
308
312
315
317
323
330
340
342
337
254
553
366
357
368
376
385
406
432
471
488
492
422
341
328
326
332
332
336
342
342
347
345
359
359
361
364
242
557
388
373
371
382
387
403
425
464
480
485
425
326
303
312
311
309
320
319
319
324
326
323
326
326
181
588
365
321
326
324
332
344
365
396
417
435
388
290
248
250
247
253
252
263
258
262
264
256
285
281
271
279
281
119
533
308
295
296
296
307
324
343
378
404
412
363
273
236
243
243
252
251
261
252
275
281
277
282
287
114
540
320
305
305
311
328
342
372
414
438
448
391
301
277
281
283
292
295
307
309
311
333
338
333
346
351
160
642
373
355
364
371
381
394
416
455
471
463
394
325
291
300
305
310
289
296
293
315
300
295
292
298
74
614
315
290
282
295
315
325
345
383
407
410
353
255
228
238
242
244
254
261
253
289
278
289
285
284
176
525
323
319
330
333
339
363
381
431
455
469
372
294
285
287
287
298
291
299
296
316
307
314
309
295
301
450
333
333
338
346
352
374
400
432
454
453
378
299
292
288
304
314
306
310
333
339
339
335
340
182
578
380
347
352
364
365
385
409
434
462
471
422
324
291
296
303
308
315
305
309
322
334
337
333
332
164
646
364
347
348
354
359
384
403
439
478
486
439
334
305
296
302
309
300
312
306
333
327
326
331
335
135
657
355
339
338
349
355
377
396
427
459
464
413
314
293
289
287
293
299
312
293
334
319
317
326
328
157
567
365
340
347
338
350
375
398
425
443
459
412
313
286
282
286
288
289
298
285
312
302
303
313
293
191
491
319
317
319
328
335
348
382
416
434
437
361
275
260
266
270
275
279
279
285
308
301
302
307
301
115
583
331
309
317
325
333
346
375
405
442
436
376
281
268
263
268
268
278
278
279
295
308
301
298
310
208
492
393
320
324
328
340
359
379
407
441
457
435
333
278
277
288
292
282
296
299
291
305
302
291
293
295
113
559
320
283
282
288
293
316
322
360
390
387
342
241
208
207
211
214
214
225
224
225
251
245
249
254
244
182
446
282
279
295
294
313
336
365
408
432
434
356
277
270
284
290
295
302
307
317
324
348
341
339
352
304
419
466
373
371
377
381
399
409
457
482
504
499
402
345
327
324
331
335
338
342
346
366
353
354
358
359
210
601
371
366
365
381
379
400
427
465
490
497
406
316
302
300
308
312
310
310
318
328
343
324
335
333
191
639
367
335
341
343
347
363
387
418
459
473
432
324
273
275
277
268
271
275
278
275
277
288
275
273
270
150
504
323
262
265
267
274
286
296
327
358
371
350
251
190
193
198
208
203
218
219
230
254
244
255
258
194
386
357
279
287
299
306
329
346
386
417
434
427
333
274
275
283
295
300
305
315
313
334
336
334
340
338
170
661
378
356
359
371
377
398
420
457
489
510
473
359
326
327
331
335
337
340
343
365
357
354
361
366
147
659
381
362
378
377
379
402
431
466
489
499
435
330
307
311
312
314
316
325
323
332
347
334
336
341
257
507
413
347
338
345
349
364
379
407
437
453
436
337
267
255
256
258
252
254
250
251
252
250
254
246
203
291
343
242
241
240
249
260
276
300
332
343
332
246
183
177
183
186
189
202
197
204
218
212
224
224
176
366
261
257
262
280
290
308
336
372
392
393
322
244
241
247
255
266
278
278
288
300
305
314
328
261
452
427
347
356
364
376
392
412
449
488
510
483
387
339
341
349
346
361
361
371
368
377
382
382
389
225
654
425
399
396
408
412
426
450
489
508
517
456
360
333
337
334
345
345
349
349
352
354
352
354
333
324
492
362
354
357
360
372
387
423
456
464
456
368
292
288
287
284
298
302
301
306
308
322
319
317
318
156
570
340
334
330
334
340
364
386
428
459
453
379
293
274
279
279
279
294
285
301
291
300
304
305
278
301
453
312
312
322
320
331
350
377
409
433
417
315
252
250
257
259
253
265
266
272
269
281
282
291
207
434
378
305
304
307
310
321
340
375
401
419
383
293
230
227
226
235
239
233
247
243
240
256
247
265
157
440
333
268
270
278
296
307
325
358
403
420
383
292
241
248
252
262
264
274
280
293
292
306
323
323
279
427
444
352
356
363
367
383
404
449
480
505
483
386
333
328
330
339
342
340
342
360
361
365
369
375
212
639
413
376
380
395
391
413
438
469
491
503
436
348
315
320
311
325
326
327
323
335
335
337
336
336
166
585
363
340
346
346
360
371
403
432
460
462
381
291
282
276
278
289
292
292
299
305
310
314
316
313
112
628
338
323
321
330
342
348
376
414
440
442
358
258
243
243
237
233
233
233
231
226
245
234
222
226
224
9
532
230
218
215
222
232
246
275
315
347
361
294
194
175
189
193
198
207
217
226
236
262
260
272
276
286
114
570
333
318
322
338
347
374
400
455
467
491
433
347
324
321
330
337
345
353
358
365
374
373
382
386
281
563
446
391
393
403
406
422
444
473
508
520
485
383
339
332
334
342
345
345
345
344
373
355
357
360
361
230
585
379
364
369
375
380
391
422
466
489
487
398
319
309
306
308
309
314
319
318
333
343
335
336
335
212
571
388
338
343
353
357
372
393
428
464
472
436
332
282
286
280
285
294
293
