272
255
246
252
252
255
264
289
281
283
283
285
210
418
316
303
307
315
323
338
373
399
433
439
379
319
278
281
293
292
287
297
292
307
311
300
300
284
411
388
319
319
333
335
349
365
389
429
434
433
377
317
307
308
304
311
312
317
334
327
340
337
243
525
381
349
342
350
358
371
388
400
446
446
418
357
306
299
299
307
296
308
314
316
318
328
304
226
456
349
311
308
311
319
329
337
373
394
409
382
319
273
263
266
266
276
278
271
287
293
287
295
293
190
508
335
308
308
315
323
335
360
382
416
423
402
333
289
284
290
281
292
294
293
326
310
316
322
311
287
429
337
325
339
337
352
367
390
414
441
432
379
314
290
287
292
298
299
304
298
312
315
308
311
312
200
470
331
320
319
327
336
345
369
398
421
419
380
314
284
283
286
284
295
297
301
322
310
309
315
253
454
375
326
329
338
337
352
369
399
432
442
429
364
316
298
299
299
306
306
309
328
326
323
322
327
243
463
350
337
346
351
361
377
396
425
441
447
396
330
301
304
297
306
311
309
332
316
322
315
299
351
407
326
325
330
332
346
361
384
417
436
418
356
301
287
287
281
283
285
280
298
302
289
293
291
176
510
323
294
294
297
302
310
331
365
382
393
366
295
251
247
243
240
247
253
264
277
270
267
275
185
453
321
291
296
302
313
319
347
379
403
421
389
323
278
271
275
278
285
290
294
321
311
309
314
265
440
385
331
328
337
342
352
373
401
435
446
437
361
314
303
305
298
311
309
320
311
338
331
328
332
326
285
460
351
341
349
344
362
376
397
426
453
451
397
326
307
307
300
304
308
312
320
342
335
328
334
305
353
412
342
337
341
353
356
377
399
427
450
436
376
315
294
294
293
299
301
302
303
327
314
311
318
295
340
408
331
325
328
334
344
362
385
419
442
432
365
303
284
288
291
287
293
303
298
312
324
312
320
314
237
492
365
334
326
338
341
356
367
397
430
442
416
351
309
286
289
293
289
292
299
302
301
312
320
314
310
314
176
527
338
323
323
331
334
350
370
392
423
432
404
327
281
275
273
276
272
278
277
277
281
282
293
278
284
278
196
455
326
282
280
286
292
301
315
341
366
385
378
306
255
235
237
241
233
241
246
250
254
258
265
281
287
275
285
285
193
442
310
308
306
315
322
342
355
392
417
427
398
333
301
295
294
304
311
315
328
332
342
352
347
348
354
221
558
382
365
372
377
381
400
420
454
472
489
441
373
326
322
324
324
326
335
324
337
342
337
333
339
211
569
369
341
336
343
347
355
377
402
436
449
412
343
292
283
285
278
290
278
287
288
288
290
301
289
293
290
156
511
312
285
284
292
301
309
324
354
387
391
376
305
251
243
247
250
249
259
264
262
281
286
272
276
277
211
423
308
302
306
317
329
344
370
405
431
434
391
319
292
296
296
303
306
309
314
317
325
334
327
331
330
238
533
369
335
340
342
348
360
379
400
436
451
447
365
316
302
297
299
302
299
308
315
313
318
320
338
326
334
333
292
414
405
342
345
341
348
358
373
391
423
445
448
391
324
300
295
293
299
300
307
305
303
319
315
314
314
315
187
501
338
322
328
335
332
348
373
404
428
438
395
330
284
292
285
290
288
295
300
302
307
318
314
317
314
255
458
376
325
327
337
331
350
363
392
424
438
434
368
312
291
292
293
297
298
304
306
323
319
311
320
318
182
510
339
322
325
332
335
348
369
399
422
429
386
314
274
273
272
274
270
277
282
281
286
297
291
292
292
208
486
346
303
297
311
308
315
339
361
390
412
396
332
274
256
263
261
264
264
275
266
277
291
287
287
297
242
402
361
305
311
316
328
337
360
384
411
427
423
366
304
287
282
290
298
301
309
307
310
332
320
328
330
318
312
442
348
333
342
346
358
374
392
427
447
448
393
318
297
291
292
291
287
299
296
291
302
322
302
302
305
268
384
379
320
312
315
325
333
347
378
406
427
428
370
307
293
298
290
298
293
302
308
316
313
316
317
335
330
332
331
324
271
469
344
340
343
349
354
371
388
415
441
437
415
338
308
303
303
301
301
309
314
318
318
322
335
334
336
331
327
287
473
343
337
341
349
354
363
390
420
443
445
390
328
305
291
298
295
294
304
309
310
308
320
332
324
322
326
221
541
367
335
331
335
341
350
369
397
420
435
431
360
307
295
296
292
289
298
306
304
312
303
326
316
315
316
319
191
497
348
331
327
338
342
359
377
401
422
443
410
343
301
288
300
305
294
304
300
309
313
323
327
317
314
325
177
548
341
332
331
335
333
347
362
393
420
424
397
339
294
285
283
285
287
289
291
296
310
309
303
312
234
430
357
309
312
319
323
339
353
373
391
413
398
338
282
267
277
280
278
284
287
285
299
302
292
295
296
217
448
316
312
317
331
327
350
368
392
422
420
380
315
292
292
293
297
303
307
308
322
323
326
327
327
197
537
361
341
340
350
359
374
396
420
447
453
417
357
314
310
316
315
321
323
323
334
348
336
342
343
267
486
388
346
349
352
356
366
381
405
431
434
423
355
305
289
286
290
292
295
297
294
315
301
301
304
304
229
455
319
307
315
323
326
346
360
401
414
416
360
307
280
274
281
281
282
293
295
293
323
311
313
313
309
283
430
332
328
335
345
343
363
392
408
436
430
376
320
291
295
290
289
295
298
303
311
315
308
308
304
194
519
352
308
309
318
319
335
356
384
411
416
390
334
286
279
284
289
286
290
299
294
314
315
310
314
315
205
485
333
318
337
333
330
344
370
402
413
432
372
318
279
279
277
283
284
291
306
316
313
309
320
256
443
377
335
336
338
349
364
384
404
434
441
431
359
306
297
302
302
304
306
306
324
320
314
318
318
169
549
344
323
326
335
337
356
382
409
430
440
392
321
301
284
287
289
288
292
303
318
312
312
313
254
430
380
317
320
334
330
346
361
389
422
427
417
345
299
289
293
290
290
300
297
316
311
311
316
280
382
396
332
325
331
343
347
374
396
422
434
424
359
303
301
291
294
299
301
314
324
313
313
320
206
512
351
330
328
336
339
356
370
396
408
422
382
310
276
266
266
267
272
259
266
279
278
268
276
277
142
480
291
288
287
291
302
313
340
369
398
400
356
290
268
266
272
272
281
284
293
301
304
308
320
291
363
407
338
345
347
353
362
389
406
438
454
445
381
328
320
321
323
328
335
338
340
346
343
355
346
297
457
367
360
361
367
367
390
407
438
447
441
383
329
306
304
304
309
310
314
313
316
324
317
320
306
332
426
336
328
333
338
351
364
379
415
436
419
353
303
288
292
284
293
291
300
304
312
310
311
317
207
470
340
333
328
333
338
356
374
400
417
421
348
292
271
260
265
268
278
266
273
280
273
273
276
151
433
291
274
277
284
287
301
321
356
372
371
316
250
227
234
241
246
249
252
260
268
278
287
295
266
373
398
327
333
340
364
376
395
430
464
492
475
404
357
354
360
363
363
368
370
384
386
394
396
398
288
605
428
398
394
400
397
415
427
450
482
485
435
365
321
324
312
314
314
311
314
319
317
313
318
319
203
512
354
309
312
319
322
333
344
376
400
407
374
305
267
258
256
263
271
269
273
275
276
295
303
288
292
308
143
546
333
309
309
319
328
344
362
390
426
424
389
328
285
294
286
293
288
296
304
320
317
312
324
325
200
477
350
331
336
344
349
368
394
417
443
442
375
313
294
291
292
296
300
304
305
302
310
334
322
319
316
308
290
449
332
331
334
338
342
361
390
417
432
435
374
311
290
289
291
305
297
301
316
310
312
325
335
320
332
324
242
495
378
337
337
340
346
358
375
407
428
447
435
361
309
301
296
293
298
297
308
308
313
329
319
323
315
295
342
400
330
324
331
336
345
360
384
416
437
425
362
298
285
282
286
285
288
293
299
303
301
321
314
313
316
297
299
433
332
317
335
331
341
353
386
400
437
434
373
306
289
291
294
284
297
300
307
303
326
326
319
323
313
192
491
341
337
335
337
346
361
383
412
434
444
381
311
282
282
279
281
274
277
281
283
281
293
279
277
282
171
495
323
274
287
282
294
300
318
340
380
388
362
289
245
244
235
239
237
244
255
251
287
275
287
295
285
163
478
325
312
330
336
343
363
387
421
455
455
406
349
317
323
323
331
344
337
353
351
356
364
354
357
363
253
538
391
374
382
386
394
412
435
458
487
490
432
359
338
327
331
336
338
342
343
359
349
348
350
347
247
515
362
352
353
356
366
369
396
431
453
447
373
313
288
287
286
283
283
286
287
298
301
294
299
294
161
509
328
296
300
307
321
328
350
376
399
411
368
304
268
270
265
275
274
281
279
296
302
294
295
297
193
518
346
314
312
326
326
343
356
394
418
428
393
329
288
286
283
285
282
294
296
301
304
313
320
313
315
312
252
463
331
320
324
337
341
360
389
414
433
437
378
313
298
293
301
303
306
306
320
318
317
344
333
328
333
333
266
476
352
343
351
349
365
377
391
426
444
453
392
326
304
306
305
306
318
314
315
325
334
332
324
331
232
513
372
332
334
341
346
364
369
396
435
441
412
347
292
288
282
287
292
291
309
297
308
328
313
313
313
301
312
440
320
324
327
333
342
355
380
406
414
423
350
292
276
265
270
265
274
264
273
274
284
278
280
281
212
399
334
272
279
286
288
296
317
343
365
377
368
301
243
240
235
249
254
249
256
264
289
272
278
286
275
235
425
309
304
309
323
338
350
379
414
437
432
377
319
296
300
302
315
318
319
329
332
347
340
347
354
280
513
417
364
368
374
386
399
413
439
473
490
468
394
345
343
343
335
346
348
345
355
367
364
359
369
364
229
584
385
372
358
366
378
387
409
438
455
464
429
351
318
308
306
308
314
310
309
307
320
318
313
317
310
173
569
345
315
321
323
330
335
363
394
415
427
387
316
281
278
275
283
280
284
290
290
295
311
302
308
309
256
411
384
317
321
325
333
337
360
385
415
434
415
352
299
281
292
292
293
305
303
302
304
313
321
311
317
321
188
549
359
316
328
336
338
352
378
401
423
441
413
338
297
292
294
293
298
304
308
304
311
319
306
330
321
324
322
302
267
448
322
314
316
320
326
333
357
382
394
397
344
276
247
248
242
248
248
250
252
254
255
271
260
256
266
183
434
318
275
279
281
298
302
318
353
381
391
371
311
255
259
262
264
276
281
288
291
300
300
326
315
321
324
319
314
464
359
346
362
371
388
396
429
464
487
491
434
371
350
363
350
360
360
371
375
376
373
393
391
386
392
391
253
615
414
389
384
395
400
410
422
447
475
477
444
367
331
317
314
321
318
323
321
323
317
339
326
324
320
318
269
436
325
317
317
319
330
333
361
387
402
402
332
272
250
252
247
249
251
255
256
258
260
281
275
273
281
279
139
502
306
291
298
303
316
328
351
384
411
417
373
303
286
276
286
283
297
307
302
316
318
330
329
330
337
339
215
562
370
348
361
364
377
392
402
429
445
470
433
351
313
308
306
309
312
319
317
315
330
332
324
332
324
194
581
355
334
329
338
344
358
378
407
435
442
395
329
291
282
284
282
276
276
279
288
282
293
295
289
282
280
174
450
296
293
290
301
302
322
338
369
396
401
352
279
253
265
251
266
275
273
280
297
310
306
308
314
297
314
418
338
335
342
354
360
386
415
443
464
457
389
343
314
321
325
328
327
338
342
338
361
345
351
354
344
284
504
369
360
363
375
375
393
410
443
467
458
396
335
315
320
313
313
321
319
327
324
342
333
332
329
331
236
472
349
335
330
343
340
365
381
409
427
431
367
298
272
269
276
277
274
281
280
278
295
286
290
291
294
139
512
310
302
302
308
314
332
354
387
417
417
374
305
274
273
280
276
281
290
294
299
299
319
309
317
313
301
288
438
330
327
329
333
347
365
385
420
435
437
377
314
294
302
304
302
311
317
320
322
324
341
331
336
335
282
454
403
343
352
348
358
363
378
405
432
446
430
356
303
294
289
288
291
293
294
296
288
298
296
291
291
287
214
449
341
288
285
295
298
313
327
353
382
396
388
311
267
260
260
261
270
273
274
280
311
306
311
309
284
353
391
332
338
344
347
357
382
397
435
454
435
368
323
296
302
307
317
315
318
322
324
332
330
332
332
334
211
581
356
338
332
341
343
355
374
410
435
454
421
352
316
308
314
314
318
325
329
333
331
348
344
348
342
352
259
528
395
359
354
357
366
386
396
425
450
462
438
364
324
314
302
311
316
319
321
321
325
333
324
325
329
322
245
463
345
327
328
345
343
355
383
407
429
429
364
311
284
283
289
284
290
293
299
297
295
316
309
308
309
310
209
486
337
315
321
332
340
354
376
412
429
436
379
312
288
291
290
286
298
307
304
302
311
314
323
318
312
319
201
550
361
327
339
338
338
355
376
404
430
441
412
347
297
286
294
298
305
301
306
311
309
330
318
317
323
267
425
387
323
321
330
330
338
365
391
424
425
412
351
290
286
285
290
292
299
295
309
304
311
308
313
335
317
323
325
310
320
446
334
333
335
338
350
362
386
412
435
435
383
316
299
297
298
297
306
310
309
316
313
322
326
326
319
330
212
542
356
331
331
339
339
352
359
392
414
431
398
332
270
266
268
261
262
270
268
272
267
281
286
278
278
280
225
409
344
292
291
291
295
302
340
359
408
408
408
340
273
258
264
266
267
281
282
289
290
300
316
310
318
316
236
521
369
338
328
341
344
360
379
408
432
446
433
363
314
301
303
305
303
315
313
308
321
324
331
312
318
321
328
248
458
337
336
333
341
368
371
388
418
442
447
405
334
300
291
294
306
306
319
303
321
339
326
332
335
259
486
393
344
354
360
365
381
401
443
466
477
458
385
338
322
331
337
335
342
348
346
364
363
361
362
304
507
429
371
367
374
378
388
398
424
464
465
450
374
318
309
314
311
314
320
313
322
334
329
329
323
324
185
535
347
325
326
334
341
353
368
404
421
429
379
313
272
272
271
270
281
273
279
292
285
286
283
278
228
421
296
294
299
307
314
330
356
385
411
400
338
280
252
262
264
271
268
272
287
299
299
288
300
300
148
566
336
312
316
323
335
344
376
395
419
433
399
319
287
292
294
289
295
307
310
305
329
322
325
322
322
211
496
352
338
341
342
355
374
388
425
438
445
397
328
297
294
294
301
304
301
312
303
328
316
308
311
309
208
490
323
319
323
328
342
357
379
408
431
433
379
302
286
284
291
288
298
304
302
305
310
328
321
323
322
274
421
398
336
325
336
339
348
369
391
421
434
427
363
305
284
292
290
294
305
299
307
302
327
315
316
321
311
208
481
333
320
322
330
333
352
369
395
416
419
365
295
262
257
259
264
271
270
265
270
289
273
274
276
268
208
406
287
285
283
292
299
319
342
368
394
392
331
267
244
245
249
255
263
275
271
276
288
305
290
291
299
239
448
372
321
327
330
346
351
377
411
435
454
446
375
326
315
318
328
328
333
344
348
353
357
368
365
369
366
250
595
412
381
383
390
393
408
433
456
491
492
468
403
344
334
344
327
343
347
341
343
350
351
346
343
336
240
527
376
338
337
343
341
355
375
396
432
432
406
326
274
267
274
274
268
282
284
283
286
308
294
293
300
276
291
427
314
314
315
315
333
342
371
409
428
422
361
286
275
286
279
280
289
286
299
299
298
308
318
305
312
312
229
486
363
319
320
326
335
344
362
394
420
433
421
356
299
291
283
286
299
291
306
298
316
322
310
314
310
274
384
395
316
321
328
332
345
358
392
422
433
427
348
296
286
286
287
294
289
294
296
303
312
311
304
313
242
463
373
316
314
330
325
340
363
386
432
435
419
355
295
282
293
293
291
303
310
313
310
327
331
331
326
338
216
550
371
332
336
342
356
363
382
409
434
442
418
339
289
288
284
285
300
289
300
300
303
322
312
316
320
316
213
519
340
327
336
344
353
363
386
424
448
441
394
313
291
289
287
288
293
303
313
311
322
314
326
326
337
201
579
360
329
338
340
353
367
392
415
447
460
435
342
300
300
295
296
300
297
307
311
304
324
311
318
310
226
480
356
311
315
325
328
328
355
371
401
417
386
320
268
251
255
250
255
258
261
257
284
265
266
268
225
341
342
274
277
285
296
304
327
347
390
408
398
327
270
265
272
280
283
290
298
317
335
327
334
345
294
450
423
368
378
389
387
406
426
456
495
502
489
410
364
356
361
365
361
364
364
364
377
372
364
366
343
367
448
369
367
371
368
379
390
414
436
453
442
380
311
305
299
298
303
307
306
318
327
311
315
311
240
510
350
323
323
318
337
350
361
391
414
429
406
323
278
260
268
275
271
277
272
282
297
287
289
294
188
555
333
303
305
313
321
332
355
383
418
434
406
325
281
280
274
281
285
289
299
299
323
318
317
321
309
286
463
329
328
331
338
347
365
384
416
431
424
362
295
278
277
278
285
281
286
304
296
295
300
291
267
400
319
314
318
327
338
356
380
408
425
417
362
302
283
283
292
296
299
302
319
319
311
316
318
215
483
340
329
331
340
348
365
385
412
432
433
383
324
301
300
303
308
313
312
315
331
324
325
325
313
314
427
333
329
330
334
343
356
380
409
425
418
352
298
277
280
277
281
279
286
299
304
297
300
303
186
493
334
318
323
331
340
352
375
407
426
433
387
321
289
288
294
297
304
304
317
324
316
319
320
205
544
358
333
336
344
351
362
385
411
434
441
402
330
297
294
297
299
305
309
311
322
331
324
328
327
230
538
369
337
343
344
353
367
386
417
438
450
427
358
314
309
309
311
315
318
321
318
340
334
333
335
332
275
457
351
344
346
350
358
371
393
418
434
430
376
310
287
286
289
295
296
299
301
298
315
311
309
311
311
186
504
329
319
321
327
335
348
371
400
422
424
376
305
280
280
279
284
287
293
296
298
304
316
310
312
314
229
500
359
325
325
329
339
347
369
394
423
436
416
346
297
288
286
289
295
303
304
303
310
324
315
314
318
264
434
376
326
326
330
336
347
365
389
418
430
416
348
295
281
283
288
291
295
297
301
302
305
319
311
313
311
239
487
364
323
323
331
338
348
366
392
419
436
419
353
301
291
291
297
297
299
308
311
311
331
321
324
326
322
248
457
342
335
334
347
351
361
383
415
431
428
370
303
273
272
265
272
276
279
274
274
287
281
279
279
280
146
457
297
288
287
294
297
319
343
364
391
394
344
273
239
237
235
246
260
254
255
275
285
273
281
291
144
527
322
303
315
316
336
347
376
418
450
452
403
339
301
312
325
318
325
331
341
341
364
358
352
366
262
576
402
375
372
381
387
397
416
448
474
493
455
370
339
338
330
335
330
339
335
338
345
349
355
349
348
236
561
396
352
354
364
368
377
399
421
450
459
422
349
299
284
279
282
280
278
279
270
282
288
276
275
276
191
441
324
273
278
284
285
299
318
348
379
398
368
297
248
250
255
259
264
269
283
288
290
299
320
311
318
326
312
300
470
347
349
358
359
371
390
417
453
469
473
414
342
322
322
322
331
332
335
341
342
347
344
350
359
352
357
362
256
556
400
358
360
365
368
378
398
431
454
470
445
377
318
312
307
311
308
313
321
322
318
328
332
323
325
325
189
528
345
333
330
336
349
355
377
414
438
439
386
313
271
271
280
271
279
283
290
286
285
291
301
305
297
304
304
152
534
327
308
306
314
327
341
364
401
422
439
393
318
272
276
279
277
282
286
289
297
288
317
310
306
310
319
156
569
334
318
321
334
334
356
378
405
437
453
394
319
280
290
281
286
286
296
287
301
300
317
316
316
317
323
183
548
348
338
336
342
350
362
385
415
456
455
413
342
299
296
292
298
305
301
314
311
308
311
320
311
312
319
231
481
360
311
317
317
319
327
344
369
400
414
385
317
267
249
253
256
256
264
269
272
269
273
291
285
281
289
285
199
467
313
303
314
314
330
338
367
391
433
443
387
328
292
290
301
300
305
311
316
327
346
330
334
345
321
351
433
351
358
356
361
371
391
420
445
467
460
390
336
300
312
311
326
319
327
321
348
340
337
337
330
282
472
357
346
352
350
366
373
400
429
455
446
384
318
295
302
299
297
297
299
303
322
317
317
313
304
282
437
330
319
329
336
347
359
388
417
435
436
371
306
282
291
286
291
295
301
302
321
320
313
316
319
183
516
354
337
327
341
349
359
384
410
435
445
391
322
280
283
279
281
288
292
291
294
298
299
303
303
297
317
312
315
305
312
182
506
323
318
317
325
331
341
361
393
416
428
395
332
282
279
278
285
294
292
299
306
312
310
313
320
329
333
330
333
337
183
567
355
344
344
348
363
373
394
417
451
465
424
354
306
296
289
292
303
303
304
306
305
320
311
315
316
321
225
508
364
320
334
314
332
342
358
388
415
427
402
327
272
254
260
260
259
263
265
267
266
274
267
266
281
284
272
284
279
150
527
314
284
297
300
302
319
333
366
395
408
394
330
278
261
261
268
263
273
294
293
299
309
304
318
311
176
533
358
333
340
351
360
388
396
444
470
485
432
359
314
321
322
339
331
345
351
351
353
365
370
364
379
380
379
378
387
254
638
416
395
400
401
412
417
430
461
492
496
480
407
342
322
326
319
318
320
319
311
309
312
305
305
301
187
499
333
309
292
302
320
328
357
381
415
426
409
312
244
253
251
242
247
253
249
257
267
268
283
291
284
321
318
316
324
331
212
523
371
351
358
364
374
391
411
440
460
466
429
360
310
307
306
316
303
310
313
315
318
314
315
323
320
176
534
342
322
317
320
328
334
352
374
407
426
366
295
255
252
245
248
250
250
261
267
273
267
275
273
300
291
294
292
309
168
517
323
320
321
333
337
358
379
414
441
460
434
354
320
316
317
325
325
328
338
344
349
370
358
362
370
339
372
459
375
370
373
373
381
398
425
448
467
462
398
322
305
303
304
302
307
310
311
311
312
319
332
314
313
318
240
499
364
322
329
329
339
348
354
394
419
437
428
363
293
290
299
287
296
271
295
302
318
280
304
321
307
309
321
314
156
531
329
307
320
317
314
332
350
381
399
404
380
294
245
240
243
235
247
257
251
259
254
282
265
270
275
264
170
449
293
291
292
305
320
335
355
392
425
434
392
309
283
295
295
289
302
316
320
329
333
345
348
366
381
361
401
287
653
447
414
394
409
405
412
432
446
504
482
488
411
344
329
337
330
319
330
304
324
321
329
332
338
347
344
336
339
195
522
363
329
334
330
344
351
369
405
421
439
413
332
279
271
273
294
281
285
280
286
288
308
309
294
301
310
180
546
344
310
318
312
322
338
343
382
408
407
392
320
262
258
255
252
254
252
262
254
265
287
262
266
266
185
439
322
277
279
277
291
298
324
347
385
400
382
314
257
250
256
263
264
276
280
289
293
321
300
311
309
318
207
507
342
339
342
350
360
382
403
442
469
483
426
358
328
335
348
341
344
348
364
363
373
376
377
382
377
383
387
390
388
383
403
393
395
396
303
584
426
391
384
391
394
397
414
432
453
458
459
424
349
308
302
296
308
294
301
300
305
288
293
296
292
282
312
288
293
287
269
217
431
294
280
279
285
294
297
315
351
365
376
338
267
225
225
224
234
234
246
243
248
257
252
263
270
272
275
283
290
299
305
304
319
274
438
412
335
344
348
350
371
383
409
443
472
463
430
359
336
329
336
337
334
337
352
343
348
350
356
347
348
359
357
352
353
354
202
605
373
350
353
355
355
371
394
418
445
452
445
368
307
307
313
300
319
322
320
322
336
327
332
334
342
343
344
324
368
439
352
346
343
351
356
375
389
412
438
440
382
304
276
276
281
278
283
286
291
288
292
306
292
287
301
309
300
302
306
208
536
339
310
307
310
318
328
352
372
414
423
429
366
303
284
290
284
287
294
302
313
306
315
317
316
331
315
275
441
342
332
336
344
349
371
382
407
434
433
378
296
265
261
259
254
264
261
261
247
258
259
268
254
262
262
113
499
289
268
269
276
277
295
311
344
369
394
365
294
242
243
250
255
262
264
273
273
291
299
295
304
313
320
323
327
263
497
399
346
351
364
367
378
403
427
457
488
485
428
360
342
344
353
350
356
363
362
369
374
384
384
387
385
246
610
411
389
391
391
400
411
433
459
484
492
452
369
323
317
310
314
314
314
313
313
315
311
315
323
300
307
303
150
559
323
307
295
304
310
323
330
365
390
407
380
308
252
251
255
252
257
258
270
274
283
275
288
295
289
294
301
251
426
381
311
323
322
336
343
363
384
419
448
448
376
315
301
299
300
305
304
312
326
321
323
336
324
335
336
328
332
329
203
567
363
333
335
335
343
354
368
392
428
440
423
358
299
285
286
290
291
299
299
311
305
308
308
313
315
326
323
327
336
215
558
373
337
344
341
349
362
378
403
440
444
443
379
312
302
288
300
307
308
309
307
317
315
332
328
329
334
322
191
535
353
334
327
329
344
346
364
393
420
433
401
318
272
269
263
270
272
270
275
288
279
287
298
298
282
299
179
526
330
299
297
307
319
324
340
370
401
418
411
333
272
268
276
276
274
288
287
289
290
295
307
316
308
316
321
320
208
518
336
334
339
348
361
377
401
430
455
472
429
365
319
312
318
316
322
322
331
331
328
344
339
338
327
335
208
550
363
334
330
332
340
354
369
389
424
436
421
339
283
277
279
283
290
287
290
294
301
302
303
305
310
326
321
313
313
312
198
516
331
327
327
338
344
356
378
410
439
451
415
352
312
291
297
297
300
299
307
314
318
316
333
338
335
329
338
210
543
361
345
343
350
356
369
381
408
439
445
416
333
286
274
281
264
270
275
276
275
273
288
281
285
271
268
128
495
288
277
285
286
300
323
320
360
393
401
375
287
253
252
256
259
258
274
285
296
305
305
328
336
329
339
334
194
504
343
320
320
340
351
369
387
429
464
474
445
365
316
330
321
331
331
346
350
340
353
384
344
353
354
336
366
463
358
357
356
361
373
384
403
439
462
463
395
317
292
298
300
274
286
286
291
296
291
305
301
304
307
305
190
541
351
316
321
326
333
344
369
393
424
441
426
361
301
290
297
303
302
309
319
323
325
324
344
327
333
336
284
446
402
343
344
348
358
360
380
408
430
460
446
380
318
300
297
295
304
302
312
311
313
320
320
317
340
325
329
326
321
204
515
341
327
332
334
334
351
369
397
423
439
409
331
290
285
293
287
294
294
301
299
312
311
317
328
320
324
326
285
411
396
333
333
341
342
353
362
384
416
435
432
371
303
278
277
274
276
283
286
287
290
287
286
303
293
297
297
247
416
365
304
302
308
315
325
341
364
394
417
414
352
280
259
260
260
264
268
271
273
277
283
279
286
281
295
302
295
298
304
172
559
337
314
318
327
336
346
366
393
424
441
438
368
308
292
292
295
296
300
306
312
310
311
315
312
324
327
322
329
330
213
569
365
336
335
344
349
364
380
404
436
453
450
378
316
305
306
313
315
322
319
332
342
331
342
344
352
342
350
367
360
356
360
343
371
464
361
360
356
363
368
372
395
421
441
446
410
339
290
285
289
289
290
299
295
295
296
300
303
303
310
302
308
307
307
313
310
319
316
319
304
325
326
325
329
262
493
382
329
327
327
334
344
353
371
397
418
424
402
335
293
283
285
288
294
297
299
304
309
313
317
317
312
327
316
324
324
277
408
403
327
323
325
348
342
354
377
407
426
437
387
311
280
279
276
284
283
293
292
296
300
300
305
312
308
315
304
321
324
318
320
282
419
407
336
327
332
338
344
359
382
407
439
440
420
338
296
303
298
306
308
319
319
322
326
332
332
345
342
345
309
413
428
350
354
355
361
368
384
406
441
461
474
409
332
299
290
295
295
295
299
300
300
297
301
294
308
303
304
288
310
409
311
306
308
313
326
333
356
388
417
426
380
303
272
270
274
270
280
278
292
291
293
299
302
308
303
309
316
320
319
324
206
569
359
324
324
333
335
347
363
384
414
434
438
381
310
286
286
289
287
293
299
303
308
310
313
309
332
327
326
333
328
290
468
347
350
346
359
363
379
398
428
456
471
433
353
311
313
314
311
318
320
325
329
325
326
327
328
330
327
330
244
493
379
324
324
328
335
339
353
382
414
431
426
366
291
271
272
276
279
284
286
291
292
295
298
299
300
302
315
313
316
318
277
415
400
325
326
325
338
342
357
378
412
436
440
404
323
298
289
300
297
300
305
313
320
318
328
328
333
336
342
308
388
433
354
352
352
361
367
383
404
437
466
461
407
327
293
295
294
294
293
299
298
299
304
300
300
305
297
294
317
307
307
308
307
237
464
322
312
313
321
330
337
365
389
415
434
414
338
284
282
280
284
290
292
295
311
308
317
316
325
321
333
340
334
340
340
248
553
391
348
354
363
363
376
384
415
444
466
468
411
339
321
305
308
311
313
313
326
323
316
327
327
318
334
326
327
327
289
377
410
325
326
327
336
339
353
367
399
431
433
383
307
268
263
268
263
275
280
282
290
288
287
292
293
299
299
304
214
503
351
308
311
311
322
328
350
366
404
430
434
365
300
280
277
292
290
300
300
309
313
318
321
332
337
332
353
351
351
352
353
226
557
374
359
361
369
374
384
406
431
458
477
456
388
327
317
310
310
308
313
311
308
313
317
312
311
314
186
525
349
309
310
319
319
330
349
375
414
423
401
327
269
264
265
265
270
270
283
282
282
286
294
292
297
294
311
312
309
312
305
263
472
331
321
330
333
346
365
374
407
442
447
435
360
313
304
307
307
312
321
319
327
334
340
338
341
345
355
348
353
350
242
574
379
354
363
373
366
371
388
410
442
456
452
388
324
291
285
292
283
294
292
298
288
293
296
306
298
301
303
171
497
317
307
301
313
314
327
342
373
402
425
391
313
267
265
265
263
274
276
287
288
300
300
305
312
316
317
336
328
331
339
266
506
401
350
353
355
359
371
391
408
439
462
473
424
355
316
310
310
312
313
315
316
314
317
317
316
315
313
192
524
346
309
306
309
313
318
332
358
389
410
393
317
252
246
243
245
249
254
250
263
267
274
280
285
283
290
300
300
304
311
215
533
357
323
328
331
337
353
364
390
425
441
447
402
328
293
296
301
301
312
312
318
324
332
329
326
326
200
517
350
332
329
335
339
348
372
393
422
434
393
310
262
254
252
256
259
263
264
267
272
274
280
281
291
207
481
350
305
301
310
318
333
349
382
422
447
444
381
311
297
302
307
314
322
324
331
341
345
343
365
356
356
360
363
213
598
385
366
367
370
381
399
406
437
469
491
461
386
331
328
320
325
321
325
329
330
336
338
340
338
343
208
560
369
340
345
347
355
358
380
406
434
448
413
326
273
265
255
254
261
264
257
261
256
259
273
266
268
271
213
384
343
281
274
287
292
306
315
346
380
409
412
358
285
261
265
267
272
282
281
292
291
304
314
307
322
320
223
543
374
334
337
344
354
362
389
410
444
468
467
395
331
311
312
319
314
321
327
332
336
335
357
349
344
348
348
274
492
367
354
358
362
363
374
395
422
444
452
414
331
288
282
281
281
278
287
285
288
290
284
289
301
298
290
298
236
429
365
303
306
306
312
326
343
360
393
423
420
376
305
284
278
280
284
291
288
300
311
306
311
334
322
324
326
313
282
448
337
325
341
339
349
358
388
413
445
454
414
335
298
294
299
293
307
304
310
304
308
325
321
316
318
319
188
511
336
323
328
332
341
356
372
408
433
445
414
334
288
284
288
294
289
291
301
301
304
305
309
327
318
319
324
260
452
391
327
332
331
338
346
363
381
417
437
442
390
321
289
285
292
284
292
296
300
299
316
317
308
311
321
205
522
360
324
327
334
342
350
371
401
430
449
435
364
298
289
288
286
296
305
303
306
308
332
316
312
316
310
307
433
330
327
335
331
344
360
381
411
439
447
393
324
286
284
290
288
291
299
298
307
320
308
307
315
296
326
420
333
321
327
333
347
360
378
417
445
446
387
312
286
290
289
292
293
298
303
303
310
314
314
336
323
321
326
328
239
508
342
338
336
345
354
376
378
412
443
457
432
347
300
298
295
299
297
305
310
321
318
322
328
334
334
331
334
332
213
579
366
342
342
354
354
367
386
410
440
460
449
377
312
291
292
288
292
293
298
298
299
299
298
319
309
303
308
307
181
505
328
315
313
325
328
343
364
396
425
438
408
329
279
270
278
281
282
284
290
298
302
308
306
315
308
318
320
320
318
324
326
325
325
328
330
330
331
333
337
339
207
630
360
339
336
343
345
360
372
392
417
433
452
417
347
304
299
301
303
308
311
315
319
324
326
326
334
330
332
336
341
340
339
343
337
342
349
349
342
349
220
550
359
344
343
348
353
363
376
395
423
440
438
375
309
282
280
284
289
293
296
296
303
299
302
305
303
311
309
310
312
313
313
322
325
323
324
177
578
344
332
332
340
345
351
369
395
425
443
441
387
314
292
290
297
300
301
305
310
313
318
318
322
325
324
331
329
326
341
345
338
345
292
456
411
345
349
347
353
361
372
387
413
435
446
419
342
292
281
283
283
291
288
298
298
302
305
311
320
319
313
319
334
337
351
347
348
289
478
414
354
343
346
358
356
365
391
413
439
453
415
346
302
300
297
293
309
299
313
310
317
315
320
321
325
332
323
328
328
246
509
377
342
333
342
343
355
369
388
421
440
451
392
313
278
276
281
277
280
287
283
290
288
288
291
293
306
292
302
292
225
448
310
303
309
311
314
331
354
376
414
427
412
322
277
266
274
270
277
284
289
292
295
302
307
307
307
314
320
196
576
357
327
332
337
344
354
371
393
426
453
451
388
318
293
297
302
300
306
308
314
316
319
321
326
328
326
331
332
337
339
339
342
342
240
576
377
343
349
351
357
366
374
404
424
449
460
426
348
301
300
300
301
311
312
312
322
316
317
319
318
330
324
325
322
284
409
400
332
327
328
333
345
348
371
403
436
439
404
325
287
274
279
286
287
287
297
298
302
300
307
305
308
320
320
322
324
281
426
403
330
331
336
338
347
361
388
409
437
446
420
349
295
291
295
297
300
301
310
312
312
321
317
324
323
317
337
336
336
344
332
263
498
352
342
352
352
358
367
389
418
443
455
449
385
320
303
302
308
314
314
319
323
327
325
324
325
331
325
330
289
409
403
333
329
327
332
337
351
371
403
420
435
398
321
282
275
275
280
283
287
291
293
297
300
303
307
305
304
324
316
320
320
293
362
423
328
327
324
331
338
351
369
394
423
436
417
346
287
278
280
283
283
286
290
294
302
299
299
304
308
308
303
324
321
319
324
303
345
435
336
335
336
345
351
364
379
410
439
453
438
372
312
302
307
308
314
319
320
323
330
333
327
326
346
339
336
338
319
347
429
340
335
338
338
346
358
378
402
428
445
420
346
291
283
283
285
292
295
302
306
306
307
311
315
319
322
324
183
587
351
331
329
331
345
352
369
392
427
451
446
380
318
297
301
304
304
309
311
321
322
329
325
329
334
344
338
340
348
222
569
374
347
350
353
359
363
382
394
425
442
439
385
315
282
274
273
282
276
280
279
283
276
281
286
284
286
169
527
310
288
289
290
299
308
314
346
374
397
391
334
258
241
248
240
249
249
252
266
269
266
272
276
275
295
297
299
301
307
180
506
327
321
327
335
342
354
373
404
432
451
453
385
326
304
312
315
319
325
327
335
338
342
350
349
351
226
551
384
359
357
369
366
378
391
417
446
456
440
364
302
291
289
290
296
292
303
300
309
304
314
306
314
316
163
558
337
324
322
325
334
346
370
387
425
440
424
355
292
279
286
290
286
285
299
298
308
296
305
319
306
312
315
294
330
418
322
314
317
327
336
339
367
396
419
433
405
329
282
279
277
279
282
286
286
299
297
304
299
306
243
445
362
315
319
321
329
336
355
377
400
429
424
369
300
272
272
268
277
282
288
290
290
293
293
300
303
240
454
367
315
316
320
328
337
355
379
412
438
445
388
311
283
285
286
289
293
297
299
307
314
313
315
318
222
540
359
326
328
332
337
349
364
388
422
445
444
378
307
291
290
292
297
298
299
310
311
312
330
329
325
330
333
202
545
358
342
345
346
357
369
388
413
444
457
451
384
319
302
302
304
307
311
306
312
338
331
345
342
326
309
454
344
336
338
352
348
368
389
426
445
457
418
338
297
288
293
298
299
304
300
311
318
307
311
310
230
505
350
309
306
314
325
337
350
377
408
432
431
363
300
272
275
280
274
275
281
283
292
293
289
290
293
218
452
325
292
292
292
297
303
321
342
362
384
383
329
260
240
241
250
245
252
259
258
266
272
263
265
271
213
400
327
279
281
288
299
321
318
357
383
416
416
365
305
282
284
286
296
306
304
316
336
329
332
332
334
310
466
361
360
363
374
383
396
413
450
476
485
444
370
336
336
335
336
340
346
342
348
366
354
354
354
337
354
454
360
357
357
361
368
383
406
432
454
470
429
356
315
311
314
318
319
319
320
336
336
325
332
333
223
537
365
336
337
341
348
356
371
394
424
438
435
367
300
287
281
277
287
288
286
287
309
301
299
298
302
155
496
314
298
300
303
309
320
338
364
385
401
379
302
247
239
239
243
246
247
247
271
267
264
266
272
126
487
302
285
290
300
309
324
347
378
401
427
410
331
279
281
282
284
286
300
307
312
330
329
325
332
334
191
545
370
353
352
357
369
376
399
425
454
471
450
372
318
307
304
299
307
308
311
314
313
326
317
314
318
227
493
364
322
321
326
335
342
361
378
412
433
434
378
309
284
282
287
295
297
302
305
308
324
321
324
323
328
187
548
353
336
337
346
352
365
384
406
439
455
439
368
314
300
301
303
305
310
315
315
319
342
326
330
332
317
331
434
344
342
344
352
358
374
393
423
444
452
418
342
302
295
294
296
301
304
306
308
310
327
315
311
315
275
398
383
320
321
324
330
339
352
373
403
423
429
387
311
278
276
279
283
286
291
295
296
294
306
312
308
309
312
219
521
357
321
323
327
338
345
363
385
414
437
440
390
316
291
293
297
298
305
305
313
316
320
318
326
337
327
333
334
247
525
383
346
347
351
357
370
384
410
435
453
460
415
340
306
304
304
310
314
312
311
308
334
317
315
318
316
225
458
335
324
325
330
339
351
372
397
422
434
406
332
281
274
279
280
285
287
290
295
301
295
305
313
307
311
312
209
538
353
318
321
324
331
341
356
380
411
430
437
386
311
280
282
283
289
294
295
299
306
309
303
327
314
320
321
307
323
426
332
334
338
339
350
367
386
419
443
456
423
348
303
294
296
303
309
308
315
316
313
310
325
321
316
319
320
177
538
343
321
326
329
341
345
361
386
418
437
419
358
294
277
278
278
286
292
290
298
301
301
299
325
314
313
319
304
290
448
331
326
333
342
348
363
382
415
441
452
429
356
302
297
298
295
302
307
309
309
310
307
321
309
309
311
210
491
343
301
296
301
305
306
320
338
364
384
379
319
244
214
212
214
217
222
226
222
220
244
240
239
242
251
112
486
285
264
269
277
291
303
324
357
394
418
410
339
285
278
284
291
301
308
321
332
330
336
360
359
365
372
379
244
631
420
404
408
416
425
436
459
487
516
542
524
458
397
376
377
373
375
374
376
376
374
390
373
373
374
340
440
429
372
376
371
377
383
398
410
438
459
461
407
323
287
285
284
283
285
282
284
286
301
286
287
287
234
399
349
291
293
293
297
306
321
348
374
405
406
347
272
247
242
249
243
246
252
253
261
259
284
275
268
278
279
159
479
301
294
295
300
311
324
348
382
412
431
410
333
283
281
287
287
293
295
305
313
315
338
325
330
334
325
337
431
350
345
346
358
360
376
394
424
445
460
408
327
290
282
277
281
279
283
283
284
280
290
297
279
284
284
214
437
344
287
288
291
297
307
321
352
383
415
415
366
296
268
268
275
278
283
293
302
308
308
330
330
333
336
345
209
556
376
366
368
377
387
399
421
450
481
495
479
410
345
333
337
338
338
345
349
341
343
362
351
345
346
347
212
535
360
344
346
351
356
371
383
417
438
453
429
357
304
286
291
295
294
293
299
298
301
309
314
312
316
313
318
258
452
316
317
327
318
325
347
365
401
427
445
414
338
289
285
284
285
293
300
304
303
305
323
319
314
317
318
166
557
335
326
327
330
343
343
365
399
419
437
422
341
290
273
277
281
279
280
284
287
286
302
292
296
296
269
296
393
299
295
291
298
304
315
337
363
388
400
353
274
234
234
234
237
236
246
251
251
256
264
278
274
273
281
214
440
343
297
304
315
320
332
343
378
403
421
433
393
326
300
300
302
307
313
319
328
323
340
349
345
345
350
260
531
404
366
375
374
385
398
416
438
455
478
473
421
357
334
325
332
338
342
337
337
352
349
341
344
344
214
556
366
341
342
350
352
360
377
400
429
440
419
345
288
275
269
268
278
276
276
288
295
287
288
291
196
496
335
300
304
308
312
326
340
367
401
422
420
347
284
270
272
276
276
285
286
290
304
313
306
309
314
203
545
354
325
328
331
342
355
372
400
427
448
443
376
306
294
303
303
304
317
307
314
319
332
317
325
328
316
270
456
343
336
341
345
354
367
384
410
439
449
410
337
293
293
292
297
301
305
300
312
324
308
317
319
288
371
403
331
329
329
338
346
361
384
410
437
441
390
321
291
287
291
291
297
302
307
306
304
323
317
317
318
319
191
521
344
322
328
332
341
353
364
388
411
422
409
340
276
258
258
257
257
260
259
256
275
266
262
264
260
143
428
279
267
272
276
283
296
317
348
373
387
355
280
236
233
237
242
247
252
255
263
286
279
282
287
286
237
428
317
311
320
329
343
358
383
418
446
463
426
354
321
323
327
331
337
345
353
356
364
382
377
378
383
353
448
460
398
399
401
408
414
432
451
482
503
508
457
384
350
344
342
344
344
346
346
343
350
357
343
343
342
248
523
378
338
338
341
344
351
367
388
416
431
427
358
290
270
269
269
271
274
277
279
277
299
290
286
288
291
149
501
312
300
301
307
314
327
347
379
409
423
397
323
275
272
271
273
276
279
286
291
290
307
306
304
306
310
175
518
335
316
323
325
328
341
360
384
411
425
404
331
273
259
258
257
260
262
264
264
264
284
270
270
270
255
270
368
284
280
283
291
299
314
339
369
397
408
364
291
260
262
268
271
277
286
292
298
300
307
328
321
324
329
325
289
472
355
351
352
362
370
383
408
437
467
479
449
375
332
327
329
329
332
336
340
345
345
346
362
352
356
356
334
382
438
364
361
366
370
380
393
415
438
461
466
424
351
306
302
300
301
301
299
296
292
308
292
289
287
278
242
396
290
279
279
284
291
300
321
350
376
387
342
266
230
227
229
235
242
247
256
261
263
291
280
286
292
288
249
445
323
322
326
336
349
370
396
425
457
474
440
366
331
330
332
336
340
346
350
354
360
377
370
370
372
329
471
444
380
380
382
384
395
410
433
463
482
487
426
353
326
324
325
324
325
325
323
346
333
329
329
327
231
477
342
329
332
335
343
355
375
401
425
434
392
314
278
275
274
277
276
280
281
286
303
292
292
298
289
244
420
311
304
306
315
319
336
354
383
407
413
382
307
266
264
264
273
268
273
275
273
287
286
282
292
286
163
484
314
297
299
307
316
328
345
371
396
409
397
325
271
263
266
269
279
281
288
289
311
303
304
306
307
215
484
327
319
324
329
337
355
377
404
432
446
399
319
281
278
279
276
283
281
289
294
300
304
298
304
304
208
514
355
316
318
325
335
342
362
390
421
444
443
381
319
298
300
301
308
311
318
326
324
327
346
337
339
348
277
500
398
350
359
358
363
376
392
410
440
455
453
402
328
305
304
302
302
313
313
308
326
321
315
319
319
212
480
334
325
330
332
340
352
378
402
429
435
400
327
288
283
284
288
287
293
293
297
321
312
312
314
310
223
479
330
333
323
332
346
347
373
402
427
442
409
335
293
299
294
296
295
310
306
310
315
334
324
320
328
317
300
449
348
338
341
347
365
370
395
419
447
451
416
345
301
293
295
294
290
295
295
296
300
299
284
293
167
491
320
290
277
287
300
304
322
349
374
391
375
307
236
231
235
234
235
244
243
249
269
260
259
266
248
253
388
289
291
297
298
316
325
357
393
416
425
379
322
286
288
290
297
305
311
316
323
329
339
351
345
352
351
308
472
426
373
376
382
383
400
423
439
468
488
499
449
379
350
348
350
353
356
366
366
371
366
385
382
372
371
372
244
565
394
373
369
375
376
383
401
426
442
458
441
369
304
297
298
293
297
299
301
299
295
318
304
306
299
303
160
517
328
308
318
316
323
327
355
378
405
415
393
326
277
268
265
275
274
277
281
285
288
308
299
299
301
302
216
444
318
314
313
319
331
342
360
384
409
419
387
311
274
254
257
258
261
261
265
260
276
275
266
267
272
138
462
296
276
279
288
297
312
330
356
389
401
384
314
265
261
263
271
279
288
292
295
316
313
316
318
325
184
573
357
342
345
356
364
375
397
425
457
473
451
376
328
317
318
323
325
327
332
334
337
357
341
344
347
323
372
437
354
353
355
361
370
386
405
434
456
464
416
341
308
307
307
307
314
315
318
320
320
317
337
327
324
329
323
194
520
348
329
333
337
345
356
374
396
424
437
421
345
292
283
283
285
289
296
299
300
299
313
317
313
315
318
228
505
367
326
328
336
344
351
372
394
426
445
439
381
316
296
296
294
298
304
306
310
310
318
322
316
318
318
221
514
357
322
324
326
335
341
359
384
410
426
421
350
285
266
267
269
269
275
281
281
278
299
291
291
288
292
149
508
316
299
301
307
318
331
348
373
406
418
400
318
272
260
265
261
270
267
281
279
292
303
298
300
306
249
423
373
319
321
324
334
344
360
388
416
440
442
391
311
286
294
299
309
307
316
321
315
338
326
332
333
333
205
587
365
348
349
352
360
372
397
416
446
464
444
378
317
305
313
313
315
319
328
325
333
345
340
344
347
331
328
456
363
355
351
371
369
383
402
432
458
472
423
349
314
307
307
311
311
319
326
317
321
336
323
322
325
276
426
385
327
324
328
337
343
350
379
413
437
430
373
303
274
276
280
283
279
291
289
292
295
301
316
314
303
306
256
448
388
320
318
330
337
343
368
380
414
435
447
380
316
287
298
294
286
296
309
307
302
313
327
324
319
322
307
314
431
341
334
340
348
358
367
386
419
442
447
398
334
291
284
291
289
291
296
296
299
305
320
309
317
310
243
451
370
314
318
318
330
339
356
376
407
429
429
368
297
277
276
279
285
284
291
293
296
290
305
311
312
306
311
206
538
353
325
327
332
335
351
363
390
421
439
440
380
308
290
296
290
298
301
302
307
308
327
325
321
323
325
203
491
350
339
340
343
354
361
383
404
434
447
413
341
292
282
286
283
293
288
300
296
298
314
306
312
311
307
171
527
333
323
317
325
333
351
365
391
422
437
411
342
295
283
286
288
292
297
303
301
306
331
323
315
318
316
264
455
339
326
339
344
355
365
392
422
443
450
410
338
301
299
293
303
304
311
306
309
327
323
316
318
324
186
541
355
325
327
337
340
349
365
390
422
430
414
330
283
265
263
269
265
268
264
266
259
278
265
266
264
264
144
452
281
272
269
275
282
295
320
337
372
386
350
276
236
232
236
242
241
253
259
269
266
291
292
284
293
298
158
554
336
331
323
336
347
363
386
422
450
475
460
393
343
337
340
349
344
353
365
361
374
398
381
385
392
359
455
454
410
403
406
415
421
437
461
479
498
504
456
386
353
353
351
351
362
358
355
359
369
354
361
354
263
536
394
351
346
351
359
365
381
403
423
446
429
360
294
274
277
278
282
280
279
286
300
297
287
281
278
292
405
298
295
297
304
314
327
347
387
408
414
362
278
260
262
262
271
275
277
291
287
310
308
308
315
313
189
588
349
338
333
342
354
367
389
414
446
460
448
376
319
324
304
311
315
320
326
331
331
341
343
341
337
337
270
494
389
345
349
351
363
353
372
398
426
441
445
380
317
300
297
297
293
304
298
302
301
310
321
311
310
312
301
255
403
320
302
310
311
319
327
343
366
389
393
362
292
246
247
240
247
253
259
268
268
293
288
290
289
280
292
402
305
300
311
322
332
345
372
401
420
438
384
324
294
296
291
304
314
318
312
331
330
325
338
331
217
544
378
344
347
356
363
377
384
415
441
439
442
378
310
290
297
306
306
317
316
318
325
317
315
324
316
238
469
338
331
340
332
356
363
374
411
435
441
413
329
306
298
298
301
312
308
313
318
330
324
331
322
284
443
398
333
331
336
337
345
360
389
416
431
442
378
305
285
286
283
289
289
295
292
306
311
308
305
306
236
440
356
309
305
314
320
322
347
360
395
407
406
346
276
262
258
266
263
274
274
285
274
304
294
296
295
303
176
480
330
318
319
329
341
355
378
404
422
436
416
350
301
293
292
301
306
312
319
318
332
343
331
336
340
230
536
376
348
348
354
361
374
386
413
437
451
445
378
315
298
302
303
303
306
312
309
311
327
322
317
319
260
446
386
325
331
332
342
345
364
386
415
437
438
380
311
292
293
288
294
296
304
301
313
318
314
318
319
194
523
366
331
331
336
344
358
377
404
422
438
430
351
302
291
294
292
293
297
303
303
299
299
315
304
301
302
289
280
404
316
300
310
320
321
335
361
379
405
410
377
307
268
265
273
277
279
284
287
284
303
300
302
307
295
295
414
330
329
335
349
351
371
392
425
448
453
398
327
307
301
304
313
321
323
320
322
333
338
330
333
333
196
532
357
336
342
351
346
362
384
412
436
447
421
347
303
302
296
303
312
314
307
318
340
335
329
339
309
374
413
352
349
355
363
375
390
414
440
461
457
407
332
310
301
304
306
311
311
308
319
332
316
319
321
221
504
367
324
322
331
337
346
362
388
416
433
420
338
289
277
280
281
287
287
289
293
296
301
316
312
304
315
273
421
395
331
330
336
345
349
370
393
427
446
450
389
322
296
298
298
299
302
308
312
314
315
337
321
324
326
317
246
458
338
324
330
337
347
355
389
400
427
438
393
317
281
280
281
284
291
290
295
295
306
302
303
301
320
317
311
319
320
171
541
336
325
324
333
344
353
373
401
425
446
424
358
303
294
298
299
302
301
312
317
313
322
339
326
331
333
319
320
424
350
345
346
354
359
373
396
425
446
449
401
326
294
287
288
289
292
295
301
299
300
309
311
308
309
312
185
535
344
316
312
323
331
340
356
383
414
430
419
348
294
281
282
284
287
289
297
300
304
310
312
314
317
330
324
328
328
244
515
379
340
337
343
353
366
378
400
433
454
456
401
334
308
305
307
308
313
313
320
319
319
323
316
331
328
323
325
330
196
546
353
334
346
390
322
340
331
393
413
436
419
354
288
279
281
276
290
293
295
299
297
300
309
304
315
311
313
317
193
557
346
331
326
333
338
355
367
387
422
452
438
352
309
302
298
297
306
301
317
327
315
322
324
336
334
336
340
335
208
548
377
340
339
348
365
369
384
422
433
458
447
382
320
307
291
303
294
297
309
305
306
311
326
312
317
309
296
291
427
321
321
323
327
330
347
375
398
425
434
385
313
274
279
276
284
281
285
290
294
290
300
300
321
313
313
313
317
176
536
334
323
327
331
338
353
370
397
427
442
423
349
303
294
288
293
297
303
304
309
320
314
325
339
333
326
339
319
311
442
345
343
344
353
360
376
407
424
450
462
423
344
307
305
301
306
306
305
319
315
312
317
343
322
322
323
275
422
385
335
329
331
339
352
365
380
414
437
453
378
308
287
280
281
290
291
293
300
299
299
306
302
327
312
314
315
321
192
499
332
323
325
333
341
352
378
397
420
440
421
342
293
287
284
287
293
297
304
306
310
324
305
319
327
323
327
330
251
498
384
339
341
342
349
361
379
399
432
445
455
400
327
297
301
302
306
303
311
311
327
313
313
333
322
323
332
311
268
449
337
329
333
337
346
357
371
401
427
436
403
329
288
285
285
288
291
291
298
300
305
305
302
331
318
318
323
315
255
466
339
331
330
339
348
363
381
413
441
454
424
355
298
299
308
300
308
316
313
325
324
319
325
344
332
339
333
246
516
380
351
343
360
361
362
382
404
428
450
440
389
319
288
291
283
291
294
292
296
300
296
319
311
304
312
310
167
507
330
317
318
321
328
343
365
387
415
430
409
336
287
273
284
282
289
292
295
302
304
305
306
321
325
320
323
328
188
571
362
338
340
347
356
364
384
409
437
453
449
386
321
306
304
306
310
313
315
312
316
320
329
321
321
318
235
493
370
332
323
332
340
348
362
383
418
433
429
369
300
283
284
285
290
293
297
299
294
303
305
309
328
306
320
320
274
409
386
320
317
324
329
338
352
375
404
415
431
386
314
284
271
279
279
283
289
293
292
290
311
308
308
309
312
177
503
341
320
325
333
337
352
367
395
422
436
422
341
293
280
284
280
288
295
300
296
298
302
322
306
309
310
287
341
400
316
312
318
321
329
338
359
388
412
423
376
300
267
267
267
266
279
278
286
284
291
292
304
308
309
310
320
184
541
355
318
329
338
346
353
372
401
432
446
448
387
320
303
305
307
308
320
323
325
325
343
344
335
342
336
204
552
363
344
344
352
357
370
388
415
437
454
436
366
304
295
296
298
299
306
305
311
306
305
334
320
321
326
321
212
500
339
334
331
337
345
358
374
406
430
442
416
338
291
282
285
284
285
286
289
286
290
310
292
291
289
278
265
388
305
294
299
302
310
325
343
369
394
406
366
286
255
249
252
261
269
278
275
287
282
312
303
304
308
312
202
487
343
329
337
337
352
373
389
418
448
460
434
361
317
309
314
318
319
330
330
335
337
334
351
354
350
354
356
252
567
395
365
368
364
377
386
396
425
455
470
471
408
344
326
317
323
323
328
326
325
330
350
342
339
337
332
206
499
355
336
336
342
349
355
376
403
428
436
408
333
285
276
277
278
285
288
289
293
293
302
308
304
303
306
200
534
349
318
320
321
330
345
359
385
417
437
436
375
307
293
293
296
296
304
309
314
313
326
331
326
327
333
235
524
378
345
347
350
357
369
385
412
442
450
454
380
310
299
293
296
294
295
303
302
303
305
317
306
303
302
211
482
341
294
293
298
296
304
318
334
365
383
375
310
244
223
222
224
229
232
228
237
233
246
258
252
257
262
150
483
311
281
278
289
300
317
341
357
395
425
419
350
292
283
287
283
290
303
309
312
318
341
329
336
337
303
408
417
358
358
366
370
381
399
426
453
477
476
424
352
327
321
331
332
336
339
344
343
365
354
359
355
331
377
448
362
360
365
365
374
388
411
440
463
474
418
344
309
313
315
317
315
317
328
328
325
344
346
329
336
337
199
538
360
342
345
357
354
365
383
411
442
458
429
360
309
297
297
291
296
300
297
295
320
307
302
304
304
188
461
326
311
314
318
325
341
357
388
413
425
387
312
273
269
271
276
277
282
287
286
289
300
306
303
304
309
211
526
358
319
319
324
335
343
361
386
418
438
434
376
310
297
297
294
301
305
307
314
327
323
326
330
332
225
527
378
342
344
351
358
367
383
415
441
457
446
374
313
298
293
299
297
303
301
303
317
313
307
302
304
162
512
327
298
298
300
307
314
332
353
382
391
368
287
240
229
232
231
234
240
242
243
248
261
259
262
267
271
116
511
305
286
295
302
317
327
350
383
413
431
416
342
297
291
298
303
300
311
321
324
335
349
341
346
354
322
400
433
374
366
372
386
386
407
434
458
482
486
433
355
331
325
327
332
334
333
338
341
357
348
345
341
325
358
437
357
354
352
360
365
385
400
435
457
458
402
333
303
305
306
305
311
309
316
311
322
324
324
321
326
222
531
369
327
325
333
339
351
366
391
425
434
427
360
303
281
287
287
289
290
294
302
304
300
320
307
315
312
313
217
462
335
327
328
333
345
356
374
402
426
443
412
332
291
287
285
287
290
298
299
299
302
323
310
310
318
294
316
417
327
326
330
334
351
356
382
413
432
441
394
322
286
288
290
294
298
302
306
312
308
318
326
325
325
329
262
474
381
335
337
343
344
357
376
401
432
449
446
389
326
305
302
304
309
311
320
317
320
328
340
327
332
336
297
397
405
341
339
341
344
356
369
391
419
441
443
382
312
286
285
287
291
292
302
294
301
298
316
314
311
310
312
168
563
341
320
320
326
330
342
361
386
418
429
418
342
289
277
285
281
283
289
294
295
301
303
313
316
311
317
317
249
474
374
326
325
335
339
351
365
389
419
435
439
382
314
292
289
295
297
304
302
316
306
315
313
327
320
320
323
241
483
373
333
330
335
341
354
366
390
415
422
429
376
309
291
285
289
294
295
302
301
315
319
311
314
314
265
422
388
329
332
328
348
350
356
386
415
434
436
377
313
292
294
299
297
301
313
308
315
337
322
324
331
327
224
482
352
339
344
347
361
372
391
422
447
455
425
351
305
299
302
305
307
313
315
317
316
318
338
322
324
324
313
290
434
333
328
336
333
345
359
376
400
424
431
395
326
291
274
283
287
284
293
297
295
298
306
316
310
314
314
249
460
373
323
321
327
329
347
350
373
410
424
428
372
309
285
291
282
295
290
293
304
304
302
303
322
313
313
310
300
300
415
321
319
322
327
337
347
370
397
419
424
389
317
275
276
270
277
276
282
283
285
288
305
296
298
299
230
448
356
311
311
320
329
338
354
379
416
433
431
371
309
288
289
297
297
303
308
320
317
317
328
341
332
333
344
230
560
388
353
359
363
375
380
396
424
452
473
462
404
338
314
320
323
319
328
324
328
337
337
332
335
334
213
526
372
333
330
341
352
347
371
410
425
428
416
346
290
279
281
281
280
282
284
284
285
300
292
292
290
202
478
337
299
292
298
312
314
340
355
394
405
404
338
276
268
267
272
273
278
283
289
293
304
309
305
313
315
190
546
356
328
336
342
348
364
381
404
428
454
435
369
322
305
308
312
317
336
329
342
365
344
343
351
323
430
423
399
382
379
405
421
417
471
465
496
511
450
378
356
351
338
332
334
352
361
349
345
339
387
235
500
326
317
311
330
324
342
359
385
396
411
358
269
255
237
233
252
235
242
259
265
244
246
247
161
464
282
263
256
262
262
283
287
325
361
373
354
280
222
213
220
215
220
227
247
258
251
242
258
159
476
300
277
275
285
302
313
330
372
407
429
408
340
279
276
274
287
294
294
315
329
331
337
338
350
233
571
384
361
366
370
381
390
419
449
474
503
476
398
343
335
341
331
336
336
343
341
346
345
338
350
357
347
346
346
273
479
396
340
340
337
342
355
368
397
419
433
441
386
314
288
285
285
287
289
299
294
303
313
307
312
319
316
332
331
329
335
285
386
408
341
342
346
355
341
366
390
428
455
449
421
351
302
298
298
302
310
303
312
317
318
326
320
339
329
326
330
279
434
398
336
334
333
350
366
364
391
423
446
449
393
318
292
289
293
292
292
298
307
304
316
308
313
320
316
320
324
321
327
322
328
323
327
335
332
336
338
195
564
355
336
341
340
348
356
379
394
417
432
436
388
320
294
287
291
289
295
299
300
304
307
309
311
313
312
313
313
325
326
328
325
234
520
368
334
333
336
348
349
367
391
417
444
443
391
322
295
297
285
296
296
304
304
302
316
304
314
315
321
316
314
325
335
326
330
280
437
398
335
341
332
340
350
366
380
407
433
444
404
331
286
284
286
288
289
293
296
298
300
301
303
307
303
313
314
309
314
313
316
325
323
326
275
443
391
332
325
332
335
342
358
371
400
421
435
410
344
288
288
287
288
295
298
306
306
308
314
311
317
318
321
319
321
332
331
331
335
217
557
368
339
341
347
352
362
377
404
427
449
452
405
328
303
293
300
292
315
316
297
303
315
313
324
307
327
325
324
330
330
202
548
371
344
333
337
352
348
369
397
429
445
444
388
313
292
295
290
297
297
297
306
304
313
311
313
309
315
325
322
323
325
197
515
344
330
333
335
346
355
371
392
430
441
433
359
299
289
290
291
296
301
300
309
310
310
317
314
319
324
325
329
330
236
525
376
337
336
339
345
354
369
391
420
440
446
396
321
292
290
292
294
299
302
306
310
310
312
319
321
322
327
327
222
549
371
335
339
337
346
355
372
395
428
450
449
388
319
292
295
294
302
290
302
309
316
318
309
321
316
324
332
194
542
356
329
331
338
344
352
369
396
427
442
433
362
297
282
283
284
287
294
296
302
306
303
305
315
314
321
304
317
431
332
330
334
335
343
359
380
412
437
448
405
327
288
285
290
291
293
298
305
310
311
314
317
316
330
328
329
330
314
322
438
343
337
339
345
356
367
388
411
439
450
424
348
297
288
288
289
293
300
304
303
305
305
311
309
316
256
432
386
325
324
327
332
349
362
390
419
424
443
386
310
286
291
285
292
297
298
304
307
316
319
323
319
326
337
332
341
335
210
581
370
340
350
349
358
365
383
410
434
453
457
400
331
300
297
294
299
304
300
305
311
315
313
315
316
194
529
358
323
323
330
335
346
368
397
426
448
431
354
293
283
283
285
289
292
297
300
305
308
308
307
330
322
317
325
310
300
451
336
332
337
343
351
368
383
416
436
456
431
354
310
298
299
300
300
303
308
315
319
322
319
321
317
271
433
332
321
328
324
328
342
363
389
411
419
370
292
252
240
242
243
247
245
250
256
251
252
254
256
267
256
259
261
193
421
320
267
271
273
279
295
308
330
367
388
400
353
286
257
261
262
270
273
285
290
294
298
319
326
322
329
330
214
562
375
353
356
363
370
383
402
433
461
483
475
400
339
322
322
322
323
325
328
333
331
338
351
343
340
345
309
404
429
353
349
352
356
367
382
401
435
457
468
413
338
309
306
303
314
303
309
317
320
321
326
325
336
343
332
334
337
213
572
369
344
341
353
356
362
380
406
431
448
449
384
323
293
294
297
294
298
311
301
303
308
323
310
311
319
282
361
397
328
315
323
331
336
354
370
406
438
444
390
319
286
289
291
285
295
299
303
304
313
330
312
320
320
276
410
397
333
335
334
341
352
368
394
419
446
453
400
322
293
290
289
290
289
295
294
295
292
306
304
298
298
297
163
511
320
293
296
297
305
314
337
354
387
401
397
324
261
245
247
252
255
266
265
268
274
299
286
291
293
287
243
441
313
313
320
329
335
354
382
415
444
456
396
328
294
296
298
303
313
301
320
321
328
345
341
336
344
341
278
480
366
356
354
365
369
385
400
440
463
472
436
356
317
303
307
308
312
312
312
316
325
334
324
329
330
244
507
375
334
336
343
344
356
374
396
432
445
442
374
308
286
289
291
292
294
302
303
309
304
324
321
317
318
324
173
573
349
330
332
336
342
357
373
407
435
450
437
362
304
290
291
293
296
301
307
308
309
331
313
317
319
319
174
518
348
326
332
340
347
360
378
406
433
451
415
338
290
285
286
285
283
290
292
293
298
318
306
310
312
292
322
415
323
317
315
324
336
346
363
390
414
425
371
295
261
245
248
250
253
255
250
250
274
263
262
262
261
125
454
290
272
278
286
293
307
329
361
389
406
379
303
258
255
258
265
271
278
286
290
295
321
310
314
321
318
251
484
349
344
346
354
368
380
403
437
465
477
439
364
327
324
330
329
336
338
342
343
369
354
358
355
351
301
481
376
368
367
372
381
391
415
440
464
475
431
357
310
311
330
297
304
319
320
318
321
342
334
333
324
307
302
434
342
333
330
338
346
359
376
405
434
444
399
321
284
287
284
285
291
293
298
297
313
314
312
316
315
191
545
355
325
326
331
336
353
368
390
422
434
420
347
289
267
270
266
266
273
269
269
282
279
273
270
267
141
476
290
271
272
276
287
298
317
341
367
380
362
288
245
231
233
235
244
251
254
265
279
271
277
280
212
437
344
302
311
315
325
336
360
388
427
456
447
378
321
308
316
310
324
337
329
359
353
353
362
358
255
589
401
369
372
383
385
398
427
454
477
503
481
396
337
330
339
334
332
341
333
348
360
352
354
351
331
357
449
362
348
358
361
374
388
409
439
468
472
393
327
296
297
301
293
302
298
301
317
311
309
308
311
160
556
341
314
315
325
326
350
360
396
419
439
407
326
275
266
270
273
274
277
281
285
289
296
313
299
303
307
293
292
424
319
317
326
322
334
349
374
402
421
438
391
325
275
277
288
289
288
288
304
298
307
313
307
307
333
318
317
323
327
222
536
368
338
337
345
349
359
380
404
423
440
449
395
327
294
305
302
298
315
307
311
308
323
326
326
323
320
233
495
377
331
332
340
346
356
369
396
422
448
436
369
307
287
288
290
293
301
298
302
301
309
303
306
326
327
312
318
319
180
540
349
333
327
332
344
353
370
395
420
445
431
355
313
290
290
297
298
301
306
308
308
311
330
326
328
327
327
194
529
354
340
340
346
350
362
380
408
432
447
421
356
298
296
291
292
295
299
299
306
300
303
325
307
316
316
274
384
390
332
324
316
334
348
356
378
400
438
446
365
283
280
286
282
