341
355
379
409
437
446
400
320
285
281
282
288
291
292
305
315
306
308
309
234
490
366
321
322
325
333
342
357
383
416
445
451
390
312
284
284
287
288
292
296
297
319
316
312
314
316
162
561
339
325
329
332
339
352
370
398
430
451
436
360
299
288
289
289
290
295
300
301
308
303
323
317
315
318
320
182
532
344
327
329
337
342
353
372
397
422
439
440
379
315
291
290
294
299
303
306
310
312
308
323
326
319
323
326
206
550
352
330
331
335
344
352
368
391
422
439
446
390
318
288
287
289
294
296
298
299
322
310
309
311
313
189
513
333
322
324
330
336
347
367
398
430
450
430
350
293
283
285
287
290
295
298
304
306
307
326
313
315
320
301
332
433
328
326
329
334
341
358
376
404
435
448
426
350
296
287
290
290
294
298
301
306
310
324
316
316
321
309
299
433
335
326
332
338
346
359
379
405
433
449
427
356
301
292
291
296
300
305
308
306
328
318
317
317
317
208
492
338
328
328
335
344
355
373
403
434
452
435
357
297
285
286
288
291
296
301
301
307
321
312
313
316
278
402
402
326
324
326
332
340
354
377
406
437
449
412
334
287
285
287
286
290
295
300
301
306
317
311
311
314
245
476
369
324
322
329
332
344
356
381
409
432
440
397
328
291
286
287
293
296
299
301
322
313
311
315
315
202
487
338
324
330
334
341
355
373
399
428
448
429
357
298
283
286
289
296
298
298
317
316
309
311
314
183
557
340
320
323
328
336
345
363
388
419
440
436
368
305
286
288
290
292
295
299
298
317
315
308
312
315
184
549
342
324
326
328
338
349
362
390
416
438
432
367
308
296
291
293
294
298
300
307
304
316
324
315
316
321
236
498
351
325
327
330
340
349
362
382
409
430
436
394
331
299
294
294
302
304
306
307
311
329
317
316
319
306
327
406
333
326
330
335
344
355
375
402
426
438
408
339
295
291
293
297
300
303
306
306
316
322
314
316
318
237
512
353
328
329
332
337
347
361
383
411
433
440
392
323
296
295
296
298
300
304
308
311
314
313
322
329
321
323
325
251
501
361
331
331
335
340
348
361
381
406
427
437
403
336
299
297
297
299
302
304
311
313
316
313
330
324
322
322
326
206
527
347
332
333
338
342
353
367
391
416
432
430
377
316
293
293
295
298
302
306
309
310
307
324
319
316
319
320
200
517
343
326
326
332
338
345
361
384
410
428
425
370
309
290
290
292
294
299
302
304
306
308
310
311
332
320
319
320
315
290
434
335
330
328
332
340
350
367
390
415
430
421
359
308
294
296
295
300
307
307
311
315
311
330
322
321
322
317
319
412
337
330
332
338
344
356
377
398
423
435
420
350
307
294
295
300
299
306
310
309
313
330
317
318
318
285
405
373
332
333
333
340
346
360
378
406
427
438
407
338
299
291
294
300
301
304
305
324
321
315
313
319
198
515
342
323
328
332
339
348
365
392
416
437
429
361
305
290
290
292
296
301
301
311
326
312
312
316
291
369
389
327
325
327
335
343
354
374
402
427
438
405
332
297
294
294
296
301
304
305
306
326
319
319
316
319
224
466
337
328
330
334
340
353
368
390
417
431
418
357
307
295
297
298
300
304
307
307
309
332
316
316
320
319
237
453
337
327
329
335
342
351
369
394
417
433
421
356
301
290
292
295
298
303
304
304
324
318
313
315
317
175
552
336
323
326
333
338
347
364
388
420
438
430
363
303
289
288
289
291
293
297
302
308
325
312
313
316
313
251
447
334
328
331
338
346
358
376
405
430
449
436
363
306
297
296
299
304
306
307
311
309
324
322
315
317
319
180
577
338
323
322
327
336
344
360
384
414
435
437
382
311
289
289
289
292
297
302
306
304
329
318
315
318
318
211
485
337
327
329
336
342
354
373
398
428
441
432
363
304
291
292
293
296
300
303
305
305
326
316
315
317
303
308
414
326
321
323
326
335
345
363
387
408
420
401
340
293
287
290
291
298
300
301
314
316
310
314
315
209
474
346
324
327
337
340
350
367
386
408
418
423
365
312
293
299
301
310
308
308
323
328
319
329
326
219
497
353
337
344
343
353
361
372
398
421
434
425
373
307
289
296
306
312
305
300
324
321
313
324
299
302
425
323
325
328
331
345
350
371
396
408
421
402
337
299
295
289
301
297
303
306
321
316
316
318
291
359
389
332
326
328
336
344
358
377
404
419
428
395
328
291
285
290
296
298
298
315
314
307
308
312
192
502
337
322
324
330
334
346
362
387
412
426
416
350
298
288
288
290
295
296
301
321
309
308
311
303
292
420
327
321
323
329
336
349
367
394
419
429
400
328
292
288
290
292
294
301
302
319
314
310
313
310
269
431
333
325
329
332
340
355
373
396
422
429
405
340
295
293
293
295
302
305
303
323
316
315
318
318
243
444
339
329
333
339
346
358
378
400
423
435
416
350
304
294
299
304
307
307
307
325
321
315
317
320
193
531
346
329
331
335
343
353
370
395
418
433
422
358
304
292
294
297
300
305
306
304
323
319
315
317
320
189
525
341
328
328
334
340
351
368
394
417
432
423
358
304
295
296
297
300
304
308
310
308
315
324
317
319
319
231
509
356
327
328
330
337
347
364
382
408
422
424
383
319
289
290
289
294
298
301
298
317
312
310
315
317
207
478
340
326
328
334
343
351
371
395
419
434
419
351
299
289
291
294
299
302
304
303
312
319
313
315
319
213
539
350
325
326
329
339
348
361
385
410
429
430
378
315
295
296
298
300
305
308
306
315
321
316
321
323
242
482
362
330
331
337
341
349
365
383
411
425
429
384
319
293
291
293
299
302
303
318
319
311
314
316
197
504
341
327
325
332
340
350
368
395
419
431
417
351
297
287
289
293
296
299
301
323
310
308
310
299
299
422
327
321
324
329
339
353
374
405
428
439
405
326
290
290
289
292
296
299
300
321
314
313
315
315
220
483
334
325
328
334
340
355
377
403
426
436
415
340
297
288
291
292
297
301
302
311
318
313
316
319
231
499
359
327
330
335
342
351
368
390
416
434
433
380
314
291
291
295
298
304
305
305
316
319
314
318
319
189
537
344
328
329
333
339
351
368
392
417
433
419
351
299
290
290
293
295
301
305
305
314
318
315
314
319
213
530
352
325
327
331
336
348
362
386
413
430
426
370
309
288
289
291
293
298
304
301
311
315
311
311
316
198
516
345
324
324
331
337
347
365
391
415
432
423
357
301
286
287
291
294
298
302
301
312
317
313
314
317
195
565
348
325
327
331
337
349
366
393
420
439
434
368
305
291
290
289
292
300
305
307
320
326
317
319
321
186
559
346
329
332
335
341
350
373
396
425
439
430
359
304
289
288
295
297
301
305
324
314
314
312
306
257
425
328
320
326
331
346
357
379
415
435
441
412
337
294
292
291
295
303
303
300
322
323
318
315
320
190
524
345
330
327
337
340
353
373
405
422
439
426
357
302
287
291
292
292
301
304
301
313
316
311
316
313
194
536
347
322
322
328
334
345
359
390
414
428
422
360
303
286
287
291
296
298
304
302
299
320
317
313
316
316
196
505
339
326
329
334
341
352
370
399
421
437
423
348
299
293
289
294
299
304
306
308
306
332
317
315
316
318
262
450
337
326
333
338
346
359
378
412
430
438
413
345
296
289
291
294
296
300
301
304
324
308
314
311
261
423
379
324
326
329
338
348
359
387
419
427
434
386
319
289
289
297
293
299
306
305
330
312
310
316
289
363
405
326
327
326
333
345
355
376
411
430
430
384
315
291
285
287
293
298
298
317
321
303
309
315
174
574
342
328
322
328
338
348
376
392
424
436
419
353
297
290
292
292
295
304
315
320
306
308
316
213
530
348
318
318
324
335
344
363
384
420
437
432
360
295
286
283
292
288
297
315
321
313
308
310
173
598
339
314
322
325
334
342
362
392
421
447
425
348
295
283
292
287
299
296
322
316
306
311
312
182
634
334
317
314
318
336
340
366
387
420
443
431
352
298
287
278
286
281
287
298
318
310
305
308
311
190
506
327
324
324
332
343
354
376
408
427
440
416
338
288
281
286
289
293
296
327
315
304
312
302
230
472
324
324
328
330
339
353
376
403
431
441
402
330
288
284
284
287
295
295
314
314
304
306
310
162
603
330
316
321
324
334
345
363
388
409
430
417
349
296
278
282
278
293
299
292
310
314
306
308
310
169
593
334
319
320
329
334
346
367
392
418
433
426
366
298
287
285
290
291
297
299
306
307
308
313
329
318
319
320
286
405
397
330
334
337
333
346
361
378
402
426
434
467
320
288
279
281
287
297
304
307
311
309
324
315
319
322
288
397
396
331
333
335
343
351
368
388
414
430
441
402
333
298
294
296
301
304
308
310
312
314
328
318
318
322
264
454
373
334
331
338
345
352
366
387
414
428
434
393
325
294
290
295
299
301
303
301
314
316
313
315
317
198
509
346
327
328
333
338
350
365
390
412
425
413
350
303
288
291
296
300
303
305
308
318
315
309
320
294
329
392
334
326
329
337
349
356
378
405
425
429
392
322
288
287
289
294
293
301
306
299
315
308
306
312
183
535
345
322
328
334
341
352
370
398
426
440
426
354
298
285
288
291
293
297
300
310
313
309
314
316
168
522
340
326
330
334
342
354
373
402
428
444
418
339
292
286
287
289
293
298
301
302
307
319
312
313
316
251
471
369
328
328
332
338
347
362
386
416
434
440
390
317
290
288
289
293
296
298
303
307
312
310
311
314
244
432
336
324
328
335
342
354
374
399
421
432
400
330
290
286
287
289
296
300
299
307
309
306
308
311
197
483
335
324
327
332
338
352
371
393
416
428
413
347
297
288
290
298
302
304
304
315
317
311
313
319
195
490
339
327
328
333
345
358
374
406
431
441
412
338
296
289
286
295
299
305
308
314
316
313
314
292
358
398
329
329
335
335
349
366
386
422
443
448
392
320
291
290
292
297
302
307
317
320
313
317
320
191
563
347
326
333
338
342
352
371
400
428
447
429
352
298
289
289
291
295
299
301
307
307
315
331
317
318
320
260
475
379
329
327
330
339
346
360
387
416
436
446
396
318
287
288
286
287
292
296
302
303
309
305
323
321
314
316
319
167
595
344
327
327
331
340
353
370
396
427
444
441
375
309
290
290
293
296
300
302
308
311
312
315
315
318
320
323
320
327
337
325
328
329
213
594
358
335
334
337
342
350
366
386
415
432
443
409
334
295
287
291
292
295
296
304
306
304
310
306
309
309
315
304
327
313
320
322
294
371
399
342
333
322
333
348
353
356
398
408
415
412
359
315
310
312
319
319
329
333
328
338
350
335
340
329
242
564
334
334
336
339
343
349
364
386
409
426
420
358
301
283
284
283
290
291
296
296
297
302
310
307
303
306
295
315
410
318
314
318
328
333
347
366
397
420
431
402
328
288
283
288
290
293
297
303
303
317
316
305
313
303
324
414
330
325
326
335
338
354
377
409
432
445
401
327
295
292
293
296
302
306
311
319
317
317
320
292
391
385
333
332
335
341
349
361
387
420
436
447
389
320
293
290
293
299
301
309
310
311
312
334
328
322
323
323
191
559
346
330
331
338
344
356
377
397
426
444
437
369
306
292
291
295
298
302
303
309
308
312
314
313
316
316
316
335
328
325
325
316
181
554
344
320
330
332
334
342
354
384
412
437
431
371
302
275
280
278
291
286
287
299
294
301
323
312
310
316
313
193
518
336
322
325
337
345
352
375
412
442
460
429
349
297
291
294
294
298
304
304
312
313
317
315
332
322
323
323
274
459
383
330
329
330
337
347
361
384
417
444
455
410
329
289
285
284
287
291
292
296
306
302
297
302
307
170
545
340
323
327
336
334
350
365
400
431
443
439
354
299
284
284
291
292
292
303
302
307
312
308
319
301
307
421
328
327
333
340
346
368
387
418
444
457
421
341
296
292
295
296
298
303
312
316
308
312
314
189
525
342
322
322
325
330
343
361
388
415
432
420
346
288
277
278
283
287
291
295
300
302
301
307
279
374
379
321
319
323
331
341
355
380
412
434
439
393
322
291
289
289
291
297
311
313
305
311
315
201
496
339
329
333
333
344
354
371
396
420
433
416
347
299
293
291
294
299
304
313
311
311
314
270
425
353
328
328
332
340
350
367
392
418
433
435
383
318
291
292
297
300
302
322
322
312
312
317
194
515
341
325
326
332
342
351
372
401
423
436
417
342
294
287
290
293
298
298
316
316
312
312
315
175
519
342
328
329
336
342
357
376
405
430
442
413
339
291
287
285
290
290
292
314
309
305
308
303
254
426
330
322
328
333
342
356
380
408
431
439
397
322
286
285
288
291
294
296
312
314
309
311
312
182
538
344
325
327
330
337
350
368
393
422
435
425
356
299
284
284
289
293
297
297
316
315
307
312
313
191
480
338
324
328
331
341
355
376
403
426
436
414
344
293
284
286
291
297
296
309
317
307
310
311
218
502
350
322
323
328
333
345
366
389
417
435
427
359
297
282
283
287
290
297
297
298
323
310
309
311
293
325
409
327
323
327
333
343
359
383
412
433
440
398
322
286
286
287
292
297
302
306
305
327
316
315
316
312
223
476
337
330
331
338
346
359
383
411
436
445
412
336
294
287
289
294
298
303
304
304
321
320
314
316
321
188
493
340
324
327
333
341
351
372
394
421
431
412
346
295
281
284
290
295
299
302
298
320
316
307
310
311
181
493
338
324
325
332
339
355
373
401
424
437
417
346
293
284
286
290
297
301
298
317
318
306
310
312
182
529
335
323
324
332
340
351
371
401
426
441
416
344
294
285
283
290
294
300
299
325
315
309
313
309
252
440
332
325
328
336
344
358
381
412
438
449
399
322
289
288
291
298
293
298
311
322
308
314
320
273
431
368
330
335
333
332
351
362
386
427
440
449
383
311
292
291
290
295
295
300
301
318
319
317
319
313
194
526
343
326
325
331
345
346
373
402
428
437
421
350
295
288
288
288
294
295
304
327
310
308
315
272
390
369
324
324
327
336
347
363
385
414
434
436
373
308
287
291
291
295
298
294
324
311
308
309
309
200
474
333
321
325
331
339
357
376
407
430
446
401
323
288
287
290
295
294
300
308
305
314
328
312
314
316
254
470
367
330
329
331
341
349
370
394
423
444
445
382
313
294
288
289
293
299
302
306
308
312
312
315
317
318
319
323
322
318
343
329
333
332
291
447
403
340
334
339
347
351
364
386
411
429
436
417
353
302
290
291
295
296
302
305
308
308
313
313
317
310
333
325
323
327
309
336
435
336
335
335
340
349
360
382
414
437
449
413
337
291
286
286
290
291
297
301
304
307
310
310
312
323
319
325
348
240
510
352
316
338
325
335
353
364
371
405
437
435
366
312
284
270
267
292
282
289
283
324
292
292
310
324
168
522
342
307
319
324
335
352
366
398
432
445
420
350
302
277
289
299
297
305
299
309
312
316
316
316
181
552
349
332
333
338
341
351
375
399
431
446
422
344
295
284
287
294
289
295
303
312
310
311
316
319
171
582
350
330
331
334
342
355
373
401
435
449
426
346
298
292
298
292
299
303
307
308
311
324
321
319
320
289
382
409
334
334
334
344
355
365
390
416
438
444
393
325
292
289
290
295
296
298
309
318
311
309
318
192
505
338
333
330
330
342
357
374
405
432
440
407
337
287
283
287
291
289
294
295
306
305
306
312
256
432
381
323
328
325
333
344
363
396
425
448
450
367
294
280
284
283
284
292
289
301
311
307
310
314
256
435
390
323
328
331
335
345
363
385
423
446
439
366
310
284
287
290
295
293
296
306
293
322
319
316
319
318
273
457
332
332
338
340
348
372
377
411
430
438
395
327
289
285
290
288
295
297
300
307
316
310
312
315
223
504
355
327
329
333
340
351
369
396
423
444
434
359
300
285
284
289
293
295
294
315
311
304
308
310
169
547
336
321
323
329
336
350
371
403
430
447
415
334
291
285
288
288
291
295
301
300
321
312
311
314
308
259
467
330
323
327
335
341
358
381
413
440
449
402
323
291
288
291
291
297
304
305
306
309
328
313
314
319
278
396
396
328
326
334
335
346
362
385
413
433
437
386
320
290
285
289
294
298
302
301
317
314
310
315
312
192
499
337
323
327
333
342
355
379
405
431
444
407
333
289
286
286
291
295
300
300
302
322
312
311
315
305
277
451
330
325
329
335
345
359
384
413
439
448
399
320
288
287
288
290
293
297
301
306
321
312
312
315
268
428
387
325
324
327
333
345
361
388
419
441
443
377
306
286
286
290
290
296
299
304
309
308
309
329
317
316
316
262
449
383
328
324
328
333
342
364
386
409
429
434
377
315
285
279
288
291
292
300
295
308
313
305
309
312
198
520
345
322
322
331
338
350
367
394
421
436
418
348
294
286
285
291
295
301
300
317
319
308
313
316
182
549
344
324
327
336
338
353
377
400
429
443
417
341
296
290
291
295
298
301
312
324
311
313
315
241
487
364
327
323
328
338
346
364
392
425
446
435
358
298
289
288
286
291
293
299
323
312
311
308
305
261
469
324
317
324
327
339
354
383
412
440
454
384
307
290
284
283
289
289
297
302
305
315
331
313
314
319
260
484
376
325
322
332
337
344
362
385
417
442
451
393
316
289
286
288
293
292
298
302
307
307
310
312
314
334
320
318
322
313
204
541
341
317
327
335
338
351
373
395
424
442
425
350
293
284
283
283
288
291
298
302
305
311
322
313
314
317
260
488
372
324
324
329
337
346
361
387
415
440
447
391
313
286
283
285
288
296
299
306
299
313
318
311
313
317
187
619
338
324
326
332
340
351
368
395
423
444
438
367
300
286
285
287
291
296
301
303
304
321
318
312
315
316
162
570
332
324
326
333
342
354
374
400
429
446
429
350
294
286
287
290
294
300
301
307
308
310
317
323
319
320
322
202
573
357
330
331
336
345
355
373
395
424
440
439
381
311
289
290
291
296
299
304
303
312
315
312
317
318
196
495
346
329
331
338
343
356
374
404
427
435
408
334
290
286
288
294
296
300
302
307
306
304
324
318
318
320
312
276
451
334
326
331
337
348
358
379
405
428
437
405
334
292
287
289
296
299
304
304
307
310
310
313
239
470
370
325
329
330
336
348
366
394
416
435
426
355
300
284
286
291
295
299
303
302
313
309
311
313
317
191
529
347
325
332
333
342
355
376
400
425
441
424
351
296
287
290
292
297
302
302
311
311
310
314
315
196
544
352
323
328
331
340
351
371
399
430
446
421
342
294
287
288
289
293
300
300
305
306
307
311
314
211
535
355
325
327
329
337
347
365
394
424
442
424
347
293
286
288
291
294
299
309
316
304
310
318
306
314
315
204
571
360
319
323
325
337
352
386
408
425
430
432
354
295
290
310
280
298
285
290
302
290
306
312
328
264
385
403
330
327
318
332
344
369
389
420
445
449
378
312
274
270
287
303
280
294
288
302
310
322
323
299
166
542
341
317
319
323
337
359
377
397
432
449
429
322
280
284
274
288
284
292
293
301
298
312
311
317
317
167
560
341
329
336
333
341
359
378
409
441
453
423
334
292
295
296
293
304
296
304
310
313
322
321
329
321
241
476
344
334
337
343
350
366
387
417
441
446
402
328
294
294
293
295
300
303
304
311
314
313
316
318
188
541
346
326
325
330
338
348
370
399
428
441
410
332
287
283
285
287
290
293
297
301
304
302
301
319
312
313
314
285
377
407
326
322
327
332
342
358
382
408
436
441
391
320
290
289
291
294
294
301
305
306
309
307
323
320
322
321
311
295
439
340
332
334
341
350
362
385
411
434
447
400
331
298
292
293
295
302
303
308
312
313
314
317
318
237
488
364
324
327
329
338
348
365
393
423
444
431
355
295
284
286
287
292
297
299
303
300
312
313
312
314
311
247
479
334
324
329
333
343
356
378
408
438
448
401
322
288
289
291
293
293
300
303
306
307
325
319
318
321
319
191
527
343
327
332
338
346
358
377
407
436
449
414
341
298
289
291
295
297
298
304
304
315
317
315
325
317
176
554
347
333
325
336
340
347
375
390
425
436
411
352
281
290
286
279
299
276
296
303
286
303
334
340
313
287
244
435
297
364
331
363
335
353
377
406
443
435
397
302
274
297
290
321
284
320
297
307
312
317
321
319
315
306
428
341
334
340
344
356
365
391
422
445
447
399
329
304
304
300
302
307
307
307
316
322
317
320
322
208
527
334
338
328
335
336
344
367
392
422
427
419
354
304
296
288
291
292
304
298
302
313
316
311
319
280
360
383
322
325
327
334
340
357
380
416
433
427
377
312
290
285
296
292
301
303
314
314
314
302
313
179
549
346
320
325
328
339
349
367
390
422
435
413
340
295
288
290
291
296
298
302
312
314
308
318
312
197
559
353
324
329
327
337
348
368
394
421
440
425
352
298
292
288
287
292
291
306
313
307
305
311
183
543
347
323
327
331
339
356
374
400
427
441
416
341
293
289
288
297
299
300
309
323
309
310
316
222
502
363
322
322
328
335
347
366
393
421
439
424
349
290
280
280
283
288
287
306
307
301
305
308
167
561
338
318
321
324
332
347
370
395
430
442
409
332
290
283
285
288
292
296
300
301
322
313
314
315
313
222
488
335
329
330
336
343
358
380
408
429
439
405
333
293
289
292
294
299
299
305
319
310
310
312
259
426
383
326
324
331
337
346
364
389
416
434
428
364
303
288
290
297
296
301
301
314
314
314
317
319
190
508
340
327
334
333
344
357
374
404
430
436
403
335
299
297
297
299
301
303
326
318
316
319
320
209
482
344
327
331
338
346
359
377
404
425
432
395
329
293
293
295
299
300
301
325
315
310
314
313
237
451
337
327
329
336
343
358
381
410
429
437
389
317
287
284
287
292
296
302
316
307
307
310
272
388
381
323
323
323
331
341
358
383
412
431
424
359
298
287
287
289
292
290
310
312
308
311
313
180
553
343
325
327
333
338
353
373
400
424
438
407
336
292
287
292
296
297
298
316
316
312
315
317
192
518
350
327
330
335
343
357
377
406
425
437
408
336
293
288
292
297
301
301
304
324
312
311
314
294
339
416
330
328
332
338
347
363
388
416
436
437
377
311
288
290
293
294
297
299
321
310
311
313
309
257
445
331
326
328
335
342
362
383
410
430
431
377
311
286
285
287
291
296
295
309
309
305
306
309
177
520
340
320
324
328
337
348
369
397
420
432
402
329
287
283
287
291
293
298
301
299
317
312
311
313
315
174
529
336
325
327
332
340
353
374
402
427
438
404
329
291
290
290
293
297
303
307
309
327
319
317
319
300
338
415
330
333
333
341
348
364
392
416
433
437
381
313
289
286
292
293
297
301
315
311
309
310
312
188
484
337
324
326
332
341
356
377
407
431
439
394
321
285
281
286
291
295
296
301
315
306
307
308
258
426
377
322
322
326
334
343
361
387
418
438
430
359
300
288
287
290
292
295
296
317
314
313
312
315
192
497
336
327
326
333
343
356
380
410
431
442
394
325
292
286
286
292
295
303
299
320
316
310
314
312
212
464
337
324
326
334
343
358
377
404
431
435
393
320
288
287
287
296
297
301
302
305
323
314
313
315
301
310
434
330
327
330
338
348
365
389
420
440
443
385
314
290
289
292
292
297
304
304
310
324
317
316
321
256
459
372
326
328
336
344
350
372
395
420
440
426
361
308
291
291
291
296
301
305
305
310
328
315
314
318
278
406
384
330
329
333
338
348
363
389
418
439
435
371
304
286
285
288
291
295
298
302
305
321
309
310
313
284
378
400
326
321
325
333
342
358
383
416
439
439
374
308
289
289
291
292
295
301
305
306
326
319
316
319
321
187
526
342
332
331
341
345
357
377
411
433
446
408
335
296
290
291
293
296
302
305
306
307
309
306
324
321
319
319
322
188
524
343
327
329
335
341
352
372
399
423
435
415
343
290
281
282
287
291
296
298
301
304
306
302
319
316
314
318
319
171
564
339
324
327
332
338
352
368
396
427
439
419
346
298
286
286
287
291
294
300
303
305
322
321
316
319
324
206
500
345
334
335
339
352
362
381
411
433
445
409
341
301
292
296
299
302
306
309
314
312
330
323
318
321
324
228
481
339
332
338
340
351
365
385
414
437
449
409
336
297
291
291
296
300
303
303
305
325
312
314
314
284
369
401
328
325
324
333
342
360
381
412
440
433
373
302
287
284
281
287
288
292
303
314
306
309
311
237
459
366
321
319
330
332
350
369
391
423
435
423
356
314
294
299
300
312
317
324
343
333
338
336
321
374
413
348
338
344
348
361
375
390
418
427
437
361
304
293
281
284
285
296
293
311
298
298
289
288
236
429
308
304
310
313
321
338
369
395
426
425
366
296
273
273
275
277
278
293
309
292
302
301
248
450
354
318
324
325
334
345
372
399
425
451
440
358
296
290
291
288
292
302
317
313
305
309
278
410
375
321
327
329
334
348
361
393
424
449
435
360
300
287
286
290
286
313
321
302
304
309
222
500
341
325
310
322
327
342
370
398
420
438
424
347
295
293
287
285
290
314
316
302
308
304
224
453
321
320
319
329
339
353
368
412
425
439
373
307
283
284
288
280
302
309
299
299
302
230
455
343
318
316
318
324
342
361
391
418
432
410
345
299
289
295
299
297
300
307
327
314
315
320
273
426
374
333
331
343
344
358
367
395
425
441
432
366
314
292
294
294
297
304
302
312
322
319
321
318
204
515
346
328
323
338
346
346
370
400
419
433
405
336
294
286
289
288
292
296
314
317
307
304
311
212
511
342
323
323
331
341
351
373
400
425
438
416
342
298
289
283
290
301
293
321
316
310
313
316
174
523
339
327
333
332
346
364
387
416
442
448
398
319
286
293
293
293
290
309
306
300
329
318
314
314
291
347
405
331
327
330
333
353
363
385
421
432
451
420
341
265
282
287
294
308
300
308
322
314
316
322
303
249
446
338
330
327
337
347
362
392
413
430
433
382
310
289
287
287
300
302
294
306
308
309
311
311
200
529
345
313
325
329
335
350
367
394
426
444
412
342
295
284
289
297
296
302
306
319
318
312
317
302
304
419
327
324
327
341
351
360
388
418
433
435
369
308
289
291
292
299
296
312
329
307
314
323
320
246
451
329
326
320
332
346
363
386
417
438
440
365
297
273
283
277
289
279
304
317
300
304
306
207
526
343
325
319
332
340
350
379
401
442
445
430
348
295
293
292
302
295
300
332
331
296
307
317
193
520
315
318
328
327
332
352
380
413
428
438
381
305
286
287
279
293
304
290
312
314
308
308
303
153
578
344
322
316
322
338
354
377
384
417
423
397
338
277
274
272
294
274
302
302
289
302
299
313
178
509
344
330
333
342
352
363
385
410
427
431
396
327
292
288
297
296
300
301
303
312
317
313
316
311
266
449
337
330
334
337
349
365
388
413
431
433
379
310
287
286
290
294
298
299
308
314
310
313
311
211
473
336
330
332
338
354
456
358
340
380
464
329
293
256
270
276
288
284
294
328
302
299
310
306
223
439
336
334
325
333
334
372
375
405
425
430
388
320
297
287
297
300
296
307
311
313
314
317
250
461
365
328
333
333
342
356
371
400
418
431
410
344
299
292
292
296
300
302
311
313
310
312
314
195
493
341
326
324
332
338
356
372
401
419
425
387
318
296
284
291
292
302
294
308
310
304
308
316
191
487
338
330
327
342
366
362
377
404
408
427
372
330
276
283
288
298
291
311
305
304
306
334
331
316
315
222
519
355
336
323
334
336
358
364
400
418
432
415
340
296
292
286
292
292
303
304
307
319
314
315
316
196
508
347
324
327
333
337
356
371
403
425
434
386
320
290
283
286
291
295
296
304
307
308
308
311
313
191
515
346
322
324
330
340
355
376
400
422
436
390
324
292
287
288
295
299
306
306
314
311
318
315
244
486
360
330
328
335
343
353
374
401
431
447
418
338
299
291
297
293
300
305
310
318
315
317
322
269
432
375
332
332
339
342
355
373
401
430
450
425
348
300
288
292
295
295
298
304
312
326
316
319
319
262
452
373
331
332
336
342
351
368
395
425
443
424
350
300
291
296
290
297
303
301
310
312
314
313
315
330
323
323
326
280
429
389
335
335
333
338
351
366
385
414
432
435
370
310
291
288
289
292
295
300
307
306
305
313
315
306
329
321
318
320
311
304
440
335
331
331
343
343
360
382
406
430
432
390
320
294
291
290
294
300
300
304
309
306
308
314
326
317
320
317
240
496
363
329
328
333
339
347
369
387
417
432
425
360
305
289
290
289
295
296
303
308
306
310
305
326
316
319
320
281
406
391
332
327
331
339
346
362
388
416
436
440
378
312
289
295
295
303
294
306
313
311
308
329
318
321
320
309
311
420
336
332
332
342
352
366
389
420
445
445
385
320
288
288
294
297
304
309
311
311
314
336
320
318
325
265
471
382
334
328
336
344
346
369
393
430
448
449
374
300
288
292
286
293
290
296
302
306
320
309
311
314
235
505
360
327
324
333
332
345
363
392
419
441
435
353
292
279
286
280
284
291
295
296
294
316
313
302
309
312
187
477
338
316
323
328
340
355
377
401
420
438
394
325
293
282
289
290
293
310
290
314
313
313
310
316
215
455
334
325
329
337
341
355
377
403
427
430
386
319
290
290
291
295
302
294
300
319
312
313
319
294
312
414
326
325
329
332
347
368
380
413
428
432
367
313
289
296
295
299
303
302
315
319
316
318
322
192
527
359
329
336
339
344
360
387
406
431
445
406
333
296
291
299
292
299
303
301
312
316
312
319
310
209
476
335
326
327
333
345
354
380
412
428
437
386
309
283
284
287
291
293
293
307
312
306
310
311
184
552
347
324
329
331
341
353
375
404
431
442
403
325
293
287
290
290
294
299
305
304
327
315
313
315
307
272
457
334
328
327
338
345
362
386
416
438
439
379
311
290
290
291
293
300
304
305
306
321
319
313
321
318
178
552
349
328
328
338
345
353
379
406
428
440
409
337
290
289
293
289
294
297
302
304
310
319
315
317
315
234
505
371
326
326
331
336
350
367
398
424
442
426
351
297
289
291
290
291
297
305
303
308
324
315
313
320
280
399
400
333
331
334
340
349
373
392
421
441
432
367
305
292
288
292
294
299
305
304
315
319
318
319
320
201
498
339
328
331
335
347
357
385
414
438
442
385
313
284
284
291
290
296
298
300
301
307
325
315
317
317
299
308
441
328
325
327
333
344
362
383
417
436
441
382
313
288
288
291
290
294
298
307
301
314
319
314
317
319
183
557
357
327
334
338
346
362
380
407
443
452
413
340
295
287
287
295
293
306
304
298
332
308
316
312
307
296
421
335
334
331
332
345
365
387
421
437
433
380
308
297
287
280
295
303
303
297
329
321
310
317
301
274
436
330
325
324
338
343
362
381
427
440
440
376
298
275
281
286
285
294
285
307
312
300
297
304
222
492
368
312
320
329
331
346
371
400
427
435
423
332
284
279
297
283
282
300
293
315
308
315
314
303
206
484
346
324
324
335
352
372
394
408
447
446
369
304
282
288
294
292
285
300
295
302
321
311
309
314
258
421
389
331
323
330
341
352
376
387
431
438
423
356
302
290
290
296
297
300
299
310
345
309
318
317
285
365
405
333
335
335
339
350
369
390
425
449
435
372
299
292
289
294
292
296
304
306
316
321
309
314
319
205
506
359
319
326
328
342
354
372
393
429
433
421
338
293
283
292
284
294
297
295
310
318
312
315
318
282
385
400
326
330
336
333
353
361
394
407
443
432
354
301
280
287
282
293
296
292
300
325
313
312
314
287
385
397
304
327
320
354
353
366
380
410
443
426
363
307
284
286
293
295
300
302
313
327
310
314
319
228
481
367
324
332
336
342
352
374
400
427
447
416
344
293
292
295
294
298
304
312
329
319
319
319
291
348
396
333
325
331
339
347
365
391
427
439
437
363
302
283
288
288
293
296
300
321
311
306
314
259
417
368
318
320
326
330
341
363
387
415
431
412
340
291
281
285
290
295
295
308
318
308
309
315
210
530
348
324
324
328
336
348
368
400
429
443
407
326
287
286
287
288
287
295
318
303
306
325
336
374
369
314
317
332
323
343
356
392
424
442
421
346
293
286
286
285
295
292
308
314
309
313
316
201
534
356
326
333
333
342
356
377
405
429
441
411
332
296
287
289
295
296
302
314
309
310
313
283
358
396
324
322
327
332
344
363
392
422
438
421
347
291
284
286
287
285
288
310
309
303
306
309
150
554
332
318
322
328
337
354
375
408
435
442
382
306
285
284
284
288
292
289
312
311
307
312
308
207
488
332
324
330
333
344
360
387
417
443
440
377
307
292
293
293
294
299
304
303
321
319
319
322
308
303
439
338
332
338
341
352
370
396
424
443
439
376
307
291
289
293
296
298
302
309
309
312
314
232
479
368
325
327
331
337
349
368
398
425
443
409
332
287
283
286
287
290
296
300
301
307
316
312
313
317
173
592
347
325
327
329
341
352
372
404
429
443
412
335
291
290
288
289
295
295
301
307
311
313
315
233
491
376
332
332
341
343
356
377
404
431
443
414
335
293
286
288
289
293
297
300
300
304
315
310
314
314
193
544
349
320
323
327
335
344
367
392
416
430
405
333
284
278
280
285
289
295
294
308
313
307
311
314
169
526
336
325
324
330
342
359
375
407
429
435
376
312
287
287
289
293
298
306
305
315
317
319
321
321
186
521
349
327
334
339
347
362
384
412
428
438
392
322
293
290
300
289
299
303
305
313
313
313
312
310
229
455
335
324
328
333
345
357
385
412
427
431
373
301
286
286
288
297
295
296
316
313
311
314
314
200
486
334
325
326
334
339
356
381
413
432
435
373
306
286
288
293
291
296
295
317
312
309
312
312
208
483
332
325
327
335
344
356
383
416
433
437
369
306
290
289
292
292
299
302
303
314
317
316
314
320
206
542
354
327
332
334
340
357
376
401
428
441
413
337
298
291
292
294
299
301
308
311
308
320
321
316
320
320
175
553
348
328
332
337
345
357
376
405
427
441
410
332
292
290
291
295
296
303
301
313
316
312
317
316
218
470
340
331
331
338
343
358
379
407
422
430
374
312
289
289
289
293
298
304
311
318
315
312
321
217
514
349
329
331
334
343
355
372
400
424
430
395
329
290
285
288
290
300
300
301
319
315
310
314
309
205
484
332
321
323
333
339
356
378
404
430
427
370
304
279
282
284
286
290
293
318
308
305
307
305
240
449
327
320
322
329
338
354
379
410
432
429
357
297
283
285
287
290
292
294
320
313
308
310
311
186
503
330
322
326
332
341
355
379
411
434
437
375
309
290
290
290
292
295
301
305
310
311
314
312
335
324
322
324
319
249
478
342
335
335
341
349
362
389
411
435
446
403
332
299
296
296
296
299
307
306
312
332
319
321
321
302
327
413
338
333
336
343
354
370
396
425
446
438
369
308
292
291
293
296
300
305
306
306
310
325
316
316
319
264
451
375
327
327
331
338
349
365
391
420
438
425
356
300
288
289
290
295
298
301
306
310
308
330
321
317
320
316
260
457
336
330
334
339
348
362
385
416
442
443
387
320
294
296
291
295
300
305
311
313
314
314
336
321
318
322
306
340
408
336
333
333
341
350
365
386
414
436
437
377
311
290
288
290
292
295
300
301
305
302
323
315
312
316
317
204
487
333
325
328
332
343
353
377
406
432
440
385
317
292
290
290
292
296
298
305
305
310
309
310
329
317
318
319
288
385
395
329
325
331
341
350
364
388
415
432
431
376
310
291
290
293
297
303
305
308
309
307
325
322
317
323
321
189
536
347
329
331
339
347
357
378
407
433
444
406
331
293
289
290
294
297
301
306
306
309
311
314
311
333
323
321
324
312
285
449
334
325
330
337
345
357
380
409
432
438
392
318
287
285
288
291
293
299
304
304
310
311
307
321
321
318
319
320
184
565
345
328
329
334
341
352
374
399
430
440
418
344
301
292
294
296
298
302
307
309
313
308
319
330
319
322
324
247
493
367
331
332
335
344
351
369
395
426
442
433
364
304
289
288
291
295
299
304
304
307
306
320
323
317
318
319
192
563
348
327
329
334
343
355
373
401
427
442
416
339
294
288
290
291
298
299
301
307
305
322
318
317
316
320
181
548
344
325
331
332
340
354
371
403
431
443
409
333
294
292
287
291
296
302
303
305
303
319
318
316
317
319
205
480
341
327
330
334
345
357
378
407
429
436
394
321
285
283
285
289
295
297
301
304
302
321
314
312
313
314
187
507
334
321
327
332
341
351
373
405
430
437
397
321
290
287
288
293
296
297
305
308
306
325
319
319
320
322
194
517
347
333
336
341
348
360
382
411
434
442
404
333
299
294
293
296
297
304
308
309
308
329
320
319
321
311
284
432
333
328
330
335
345
361
383
412
433
438
382
313
289
290
292
296
300
302
305
307
308
313
327
318
318
322
264
459
381
334
331
335
340
350
366
391
420
438
436
371
307
293
292
296
296
298
306
308
304
322
318
316
317
318
197
497
344
327
331
334
344
353
375
405
427
435
400
328
290
287
290
293
295
300
303
300
315
319
311
315
316
216
517
354
320
327
329
336
349
366
393
423
437
416
343
290
283
283
286
290
295
299
297
317
310
308
311
313
180
518
333
321
324
328
338
351
373
405
432
440
392
318
288
290
291
293
298
301
306
306
313
322
318
318
325
231
514
365
332
331
336
346
355
374
398
427
443
431
356
304
292
293
296
297
303
308
309
318
320
318
321
322
205
488
345
330
333
338
346
358
379
407
432
438
389
317
283
284
286
291
292
298
300
303
305
303
322
318
314
316
319
174
573
342
324
329
331
339
352
369
397
422
436
412
338
296
289
291
292
297
299
304
305
308
317
323
319
322
325
250
485
371
331
333
337
340
356
370
397
427
444
433
360
307
295
292
294
296
301
305
306
309
311
316
316
321
295
367
396
331
330
332
339
348
362
387
415
434
433
367
304
284
286
290
292
295
298
302
303
306
306
312
324
317
317
319
245
498
368
326
326
329
337
348
363
388
416
432
431
368
303
289
290
288
295
298
299
301
308
315
314
315
317
236
484
359
326
328
332
338
350
363
393
419
433
416
343
297
284
286
290
293
297
301
304
313
316
314
319
317
199
502
346
327
334
336
344
361
377
408
431
439
401
329
294
292
291
295
298
306
303
317
322
313
315
317
198
538
342
325
327
333
342
353
376
405
431
444
401
326
292
286
288
288
295
299
311
318
308
307
310
244
459
359
320
324
327
336
346
363
398
428
445
419
341
294
292
293
293
300
299
317
313
312
312
316
170
586
335
321
316
318
333
348
365
404
430
449
393
316
280
284
286
290
290
285
297
308
306
309
313
255
455
377
324
333
330
338
351
372
397
421
445
422
353
299
291
291
299
301
299
302
304
312
313
310
327
321
322
325
320
254
480
339
332
334
343
351
365
386
417
439
448
399
321
292
286
290
293
294
298
304
304
307
324
316
317
320
307
301
448
331
330
332
336
350
361
387
421
444
441
375
309
289
290
287
291
297
298
304
304
317
319
315
320
321
192
555
353
327
328
336
343
357
376
405
434
447
414
333
289
284
287
288
292
298
303
306
307
305
327
315
315
318
308
268
463
331
327
329
335
345
361
385
418
444
447
390
313
285
291
289
291
294
296
303
306
305
317
320
316
318
320
207
552
358
329
332
337
342
356
374
404
435
451
426
351
295
288
288
290
296
298
305
305
307
325
319
317
315
318
209
490
340
327
330
335
346
360
384
414
442
449
395
319
285
283
286
290
292
297
301
301
307
319
309
314
313
235
495
364
322
323
329
335
347
364
393
428
447
432
353
293
284
286
288
291
294
299
303
307
306
310
325
316
316
316
263
443
385
323
324
325
334
342
361
387
411
438
430
364
302
283
282
293
294
295
303
310
311
315
317
330
321
321
321
272
439
380
333
330
339
344
356
368
395
422
440
436
375
312
296
293
296
300
303
309
309
312
332
316
315
318
276
411
377
329
328
332
339
349
362
389
420
439
430
359
299
285
289
289
294
296
299
303
305
304
325
313
312
314
308
270
438
330
326
328
334
341
355
375
406
430
436
386
315
290
291
291
296
298
301
306
312
310
316
328
318
319
321
269
449
368
329
330
332
337
350
364
385
415
435
427
366
305
289
286
287
292
297
302
304
307
307
317
325
318
319
318
239
492
356
332
331
338
344
354
367
395
420
434
428
361
302
289
287
289
294
299
298
303
305
325
312
310
316
297
341
399
326
323
326
333
343
359
384
413
435
434
372
305
289
286
288
294
298
302
305
304
318
321
314
316
320
213
534
348
327
331
335
341
353
371
399
427
444
424
349
300
293
295
295
298
301
307
308
310
314
314
324
329
322
323
326
239
525
361
331
330
334
339
350
366
388
415
434
429
366
305
290
290
293
295
298
302
305
309
309
315
327
315
318
320
274
432
373
330
331
333
341
351
365
388
417
435
433
374
311
291
292
295
299
304
306
309
311
312
315
313
334
326
323
324
324
193
535
344
332
333
339
346
356
375
401
426
439
419
346
299
293
295
299
299
305
307
311
312
314
311
317
331
322
320
325
280
433
379
334
332
337
343
351
366
388
412
435
436
385
316
293
292
292
297
301
304
308
309
306
326
320
317
320
318
221
468
338
326
328
334
340
354
374
403
426
437
397
323
287
286
287
290
294
299
301
303
306
310
309
308
330
319
320
320
309
310
429
331
326
328
334
341
354
375
404
426
434
396
326
292
289
291
296
298
303
304
309
311
312
317
328
319
320
319
257
471
366
330
330
334
338
349
365
390
416
436
431
372
310
291
291
295
296
300
305
310
310
307
327
318
316
316
319
224
462
340
328
331
336
343
357
378
405
429
441
404
330
293
290
292
294
298
303
303
305
304
324
318
314
317
319
197
501
337
325
327
330
339
352
373
403
427
439
405
334
296
293
295
297
299
304
304
306
319
324
315
319
323
244
494
365
331
332
339
343
353
371
394
423
442
431
362
306
289
287
294
297
303
301
304
321
324
312
318
318
208
517
348
326
329
333
339
353
370
400
425
439
419
346
294
283
286
289
293
296
300
296
315
311
308
309
312
175
526
336
319
324
326
336
348
370
398
427
440
403
326
289
288
287
290
295
299
302
303
317
315
314
316
316
190
544
346
328
330
335
343
356
376
403
431
446
416
342
297
290
291
292
295
301
302
307
326
314
315
320
301
343
396
333
328
332
339
351
367
391
422
442
446
379
308
287
284
287
290
294
297
298
301
316
309
310
313
294
333
407
326
322
325
332
340
356
380
412
435
438
376
304
284
285
285
289
292
297
302
303
308
324
313
316
319
293
358
412
331
328
333
339
349
364
387
419
442
445
385
311
293
291
295
294
298
300
308
310
312
311
330
318
319
320
317
250
460
341
332
335
340
348
361
384
413
435
446
403
327
292
287
288
292
295
300
303
305
303
316
319
313
315
319
208
542
356
329
327
333
341
350
368
397
424
444
429
356
300
288
289
292
293
298
301
307
307
308
327
316
316
319
312
275
437
337
330
333
339
349
362
385
413
433
442
395
320
288
285
287
292
296
299
302
305
304
318
319
312
316
317
183
574
346
325
327
331
339
350
369
397
426
444
423
347
293
286
287
289
292
298
301
305
305
304
327
315
315
316
314
257
451
333
327
329
336
345
359
383
411
437
441
402
326
292
288
289
294
299
300
303
302
317
318
314
314
319
196
528
347
324
327
331
340
351
371
400
427
441
420
343
295
289
290
292
296
301
304
308
307
313
325
315
318
321
267
445
384
330
331
333
340
350
365
390
422
440
442
378
310
289
291
294
295
298
303
308
304
317
318
314
318
317
205
523
352
328
327
336
343
355
373
399
422
438
419
349
300
288
289
291
299
303
307
306
310
327
316
316
318
285
385
382
333
325
331
336
348
363
390
415
434
434
378
308
288
285
288
293
297
302
300
322
315
310
312
313
187
515
336
322
324
329
339
350
373
403
430
442
404
325
286
283
285
288
291
296
295
313
314
308
310
313
201
547
346
323
324
329
335
347
369
397
429
449
423
342
294
288
291
291
295
298
301
300
324
314
316
319
320
205
494
340
330
333
342
347
364
382
411
439
448
404
331
295
292
293
295
299
304
306
304
321
318
314
316
318
183
527
343
325
327
333
342
354
374
403
430
443
409
331
289
286
287
289
292
298
301
303
301
317
316
313
316
318
179
575
343
324
325
331
338
350
370
398
428
446
419
342
294
287
290
290
294
300
305
307
310
310
329
322
319
320
317
261
455
338
332
331
338
350
361
384
412
437
448
404
331
297
289
293
296
301
302
304
303
319
315
316
316
316
219
468
337
324
329
336
344
358
380
410
436
444
394
319
285
284
285
290
292
298
300
298
318
313
310
314
313
187
511
332
321
321
324
338
350
372
404
426
441
400
317
290
293
287
302
300
304
306
310
332
333
336
341
343
202
522
354
339
337
343
348
359
377
406
434
446
408
331
289
283
283
290
291
299
300
298
310
316
309
311
315
182
524
339
320
322
326
336
348
367
398
426
440
408
329
283
280
281
284
287
293
294
296
318
307
307
310
306
247
450
327
321
322
327
338
354
378
411
436
442
387
314
285
287
289
290
294
301
305
308
307
329
321
319
321
319
249
465
339
333
334
338
345
363
385
411
434
444
399
330
294
294
291
296
299
306
306
309
320
315
317
321
285
405
383
332
330
335
341
352
373
399
426
448
441
372
308
288
285
284
290
297
299
295
316
317
308
311
314
163
573
341
320
324
327
334
349
369
400
431
447
418
333
287
280
283
284
287
291
295
299
300
324
311
309
313
309
243
475
330
326
329
334
344
361
380
414
439
451
397
317
286
282
282
283
288
289
293
300
313
306
310
314
251
454
366
326
326
331
339
350
365
389
420
439
429
360
302
288
290
292
304
296
300
305
310
319
321
317
319
210
538
353
328
329
334
341
351
371
397
426
442
422
348
295
287
288
289
294
295
306
319
311
315
316
268
432
375
327
325
331
337
344
364
387
418
436
426
360
298
285
290
290
292
293
317
309
308
311
310
195
486
340
324
328
331
343
353
377
400
425
437
398
326
290
286
289
294
300
301
307
313
307
311
316
217
507
351
327
325
333
336
350
371
395
423
438
416
342
292
284
285
288
293
294
308
310
306
309
311
180
509
335
323
325
330
339
353
376
405
431
442
394
318
287
287
287
290
291
296
309
310
310
314
292
352
397
328
327
330
335
346
363
388
417
438
434
367
304
292
293
291
297
296
308
314
311
312
320
209
514
350
329
330
335
343
356
371
400
423
436
411
341
297
291
294
297
301
302
315
320
315
317
320
189
512
345
328
329
335
343
356
379
409
434
444
403
325
287
285
287
292
289
300
313
305
304
308
259
410
369
320
321
327
333
342
359
389
419
438
426
352
294
285
285
287
291
290
296
321
310
301
313
307
252
451
337
323
328
342
350
361
384
416
437
442
392
312
286
288
289
282
281
307
321
305
306
311
278
358
377
316
317
322
332
347
356
382
408
423
424
363
301
286
289
293
293
297
311
320
311
314
315
197
526
349
327
328
337
342
355
377
405
430
443
415
337
294
288
290
293
294
293
313
313
307
309
313
175
548
339
321
323
328
336
349
371
400
426
440
400
324
287
290
284
288
293
293
307
311
306
308
310
202
516
345
321
324
328
334
350
367
394
420
431
408
340
296
286
290
293
296
302
299
323
314
309
315
315
197
481
338
325
328
334
343
356
377
402
424
432
396
325
290
288
290
294
298
296
315
315
309
310
315
179
546
339
323
325
329
338
350
369
398
424
436
401
326
289
287
289
289
294
296
301
321
311
312
314
305
289
424
331
328
332
336
345
361
383
413
433
436
379
315
292
293
294
295
301
304
300
324
318
315
316
318
211
469
342
330
333
335
349
357
378
403
424
431
396
329
294
288
292
294
298
304
304
315
322
315
317
315
213
518
348
325
327
336
340
355
370
398
421
435
415
346
299
287
288
296
296
299
309
324
310
312
314
245
467
362
325
328
333
339
351
370
398
427
446
429
351
292
284
283
286
289
291
308
316
303
307
309
207
545
348
320
321
326
333
346
366
395
427
442
419
338
284
279
279
281
286
290
291
318
314
309
313
316
140
574
340
327
330
335
347
363
387
420
449
461
416
332
289
287
288
290
294
299
302
301
320
317
313
314
316
129
618
338
324
326
333
343
357
380
411
438
452
421
338
290
284
285
288
291
297
302
305
301
320
317
313
315
317
143
589
340
324
326
332
340
353
372
398
426
438
414
337
287
284
282
284
288
293
296
297
315
310
310
309
308
216
453
333
322
325
335
338
354
381
404
423
435
390
322
286
283
287
293
299
301
299
316
316
310
312
314
185
490
340
323
328
334
344
359
381
408
430
443
406
333
290
285
289
294
299
299
303
324
308
311
313
287
354
392
325
324
327
335
344
363
387
419
436
435
368
301
284
284
288
293
295
296
312
316
308
312
315
189
547
346
323
325
331
338
352
373
403
429
444
412
337
292
285
286
290
294
298
301
304
324
313
314
319
295
348
412
332
330
334
340
351
366
391
423
443
444
383
315
293
293
293
297
302
306
308
312
310
330
320
320
322
319
242
474
337
332
332
342
347
362
383
415
433
442
401
329
291
289
292
295
297
304
307
308
308
326
315
316
319
274
414
387
328
329
332
337
347
364
388
419
437
433
372
307
284
283
288
292
296
302
301
306
302
314
320
312
316
317
196
553
353
323
325
331
340
351
369
394
420
435
423
355
294
282
282
288
291
293
299
302
301
305
319
312
313
316
268
420
381
327
327
330
336
345
364
388
419
437
436
377
310
285
284
289
293
297
302
304
303
311
325
315
316
319
239
484
366
326
328
333
337
349
368
392
423
438
430
364
302
284
285
290
294
298
302
304
306
305
326
318
317
318
313
247
463
334
328
331
336
346
361
384
412
435
443
402
330
291
287
291
295
297
303
305
310
308
317
326
319
322
323
230
525
366
331
335
338
345
355
372
398
425
441
433
369
305
288
285
291
293
299
304
305
303
311
322
313
315
317
222
510
356
330
330
333
344
355
371
397
425
442
430
362
301
285
286
289
295
298
301
300
311
319
310
313
317
202
534
350
321
324
329
337
349
369
399
427
443
422
345
293
284
284
285
292
293
297
302
301
302
321
311
312
314
283
371
402
327
324
328
335
346
361
386
420
442
441
386
314
288
287
291
293
296
301
304
306
307
327
314
316
320
270
423
383
325
328
331
340
347
367
392
422
436
436
375
309
290
286
288
293
298
304
305
302
321
317
315
316
318
191
505
343
327
329
334
344
357
376
403
428
434
406
332
287
282
280
287
293
294
297
296
318
308
310
307
306
247
455
329
319
325
332
342
356
384
408
437
441
388
317
287
283
289
290
296
301
304
325
311
310
312
297
309
423
328
324
325
334
346
362
388
420
445
443
379
309
287
289
289
292
297
298
315
317
311
313
313
207
540
351
325
328
332
341
351
371
402
432
450
426
345
294
287
289
289
292
295
299
300
323
314
313
315
315
181
525
337
325
329
334
343
357
381
414
439
446
399
322
284
287
288
287
286
295
296
300
307
308
308
313
243
467
370
323
328
331
339
352
371
395
426
439
431
360
303
289
288
288
294
304
312
316
314
316
318
259
446
365
331
330
331
341
352
369
396
427
441
426
353
295
285
287
288
296
297
302
317
312
309
313
289
345
400
323
319
324
333
342
358
385
417
436
434
363
296
280
281
283
285
286
294
308
302
303
305
271
390
387
320
320
326
330
343
361
388
420
440
430
356
296
285
284
287
291
290
293
311
311
310
314
312
192
494
338
326
330
332
344
357
381
408
429
437
397
325
286
287
287
294
296
297
310
314
308
310
312
174
515
337
324
327
334
341
355
378
408
432
440
391
314
284
283
286
289
293
295
301
312
309
313
317
256
462
378
329
330
333
341
351
371
397
428
444
431
361
300
291
287
293
296
297
301
315
312
315
312
271
416
377
329
329
331
342
350
369
397
423
433
425
359
301
285
290
292
296
299
302
311
314
312
316
314
222
468
336
326
329
335
343
359
383
414
435
440
387
311
284
285
286
290
295
296
301
319
309
310
313
290
343
415
327
324
329
336
346
363
390
420
442
438
372
304
287
288
290
293
298
298
304
324
311
313
318
293
346
413
331
328
331
338
349
363
390
421
441
436
376
311
288
289
289
294
299
302
304
306
326
317
315
317
307
300
425
333
329
330
337
348
363
386
413
433
434
385
316
288
289
293
296
300
306
303
310
327
314
316
319
291
382
396
335
330
334
342
348
367
388
416
436
432
376
314
298
295
296
299
303
303
305
319
324
317
320
319
227
498
351
328
327
333
342
352
370
393
417
432
415
348
298
287
290
291
296
296
297
304
318
307
310
310
257
430
356
321
322
327
332
343
359
384
412
426
414
353
302
289
288
293
298
300
302
301
322
315
313
316
314
248
436
331
324
328
334
342
355
381
405
430
428
384
319
292
288
294
292
298
300
304
313
319
312
314
317
215
498
346
326
329
331
343
353
371
398
422
434
417
346
299
287
291
294
298
302
302
302
324
312
311
314
305
299
409
330
326
328
334
343
357
381
407
426
426
373
309
288
287
289
291
298
299
304
307
307
307
327
315
317
318
282
399
385
326
324
328
337
347
361
383
411
427
426
375
313
295
289
291
296
303
305
305
308
321
317
317
321
319
202
490
344
333
332
341
349
365
386
411
435
444
405
334
296
289
287
296
298
298
303
306
317
313
315
315
294
344
392
328
327
331
341
342
362
392
418
438
437
375
309
287
284
288
292
296
299
295
310
313
310
311
315
174
538
339
322
325
328
337
352
372
401
430
440
410
331
289
292
289
294
295
301
303
304
317
319
313
317
319
194
528
346
331
333
340
343
357
382
405
432
441
413
340
300
291
293
298
302
306
303
322
322
316
318
319
186
524
345
330
332
338
349
367
383
420
436
446
407
331
292
284
291
292
295
301
303
321
309
310
309
279
387
379
324
320
325
334
343
363
387
410
438
422
356
297
284
281
292
297
291
299
300
313
307
306
313
300
293
415
328
320
323
329
340
357
382
411
429
431
376
309
290
287
290
289
301
298
301
307
307
305
315
323
316
324
322
232
515
360
332
329
337
345
357
372
403
425
442
431
367
307
289
291
292
296
303
304
304
307
327
317
316
319
298
359
388
334
332
335
340
352
367
393
423
444
439
370
305
285
284
287
289
292
295
297
313
305
318
317
314
242
447
331
321
334
331
344
355
383
416
449
445
387
308
285
285
290
291
292
297
304
301
320
312
312
319
255
447
370
323
328
329
332
347
361
386
424
436
425
354
299
286
288
292
297
298
306
307
301
326
315
315
318
315
251
447
333
327
331
338
345
363
385
413
436
440
389
323
293
293
293
297
301
306
303
316
321
313
316
318
196
510
346
326
329
338
343
357
376
405
429
442
405
333
293
287
289
293
298
301
301
321
309
308
311
305
263
429
331
323
328
334
343
359
385
414
438
439
375
306
283
286
286
291
297
295
312
315
309
311
314
198
534
347
323
326
332
340
350
373
401
429
445
409
330
290
288
287
288
293
297
297
319
314
311
314
316
184
509
338
325
329
332
342
355
377
410
433
441
392
318
286
286
289
292
296
299
302
321
313
312
316
308
285
424
331
326
329
336
345
362
386
416
438
434
377
311
291
290
291
294
298
298
313
316
310
312
317
196
537
347
325
328
332
341
353
373
402
427
438
408
334
292
289
291
294
298
298
303
321
312
314
315
298
323
406
331
328
331
339
347
363
389
415
431
429
369
308
287
288
289
294
299
300
305
318
311
309
313
268
409
371
323
326
332
339
351
368
392
416
428
420
360
301
287
286
291
298
301
300
299
319
312
313
315
314
231
457
337
327
329
336
347
360
384
413
434
439
389
316
287
286
290
293
298
301
301
318
313
313
315
312
236
461
332
326
327
334
344
359
382
411
433
436
379
308
287
286
288
291
295
296
306
308
313
313
316
224
503
356
327
327
334
339
352
372
399
425
436
411
342
292
288
289
289
295
300
300
310
315
310
314
319
199
503
348
328
331
339
347
357
379
404
426
437
401
330
291
289
290
297
298
301
303
311
314
311
314
313
246
451
335
326
331
335
344
360
385
415
437
438
378
308
285
285
285
289
293
298
301
303
322
311
314
315
298
328
417
328
326
332
337
347
363
390
420
440
438
374
306
288
288
290
292
295
301
304
305
312
323
316
319
321
239
505
366
330
332
335
342
353
371
399
426
444
431
356
299
292
290
293
295
301
304
310
305
316
321
319
319
320
227
507
360
327
330
333
343
356
372
401
427
443
424
353
299
284
284
289
294
298
303
301
312
313
309
315
308
261
422
333
325
330
336
345
360
385
415
437
438
377
306
280
280
283
287
293
295
297
298
319
308
307
312
303
276
437
327
324
327
334
345
362
388
420
444
445
380
308
285
284
285
288
293
296
302
303
306
324
314
316
318
294
348
411
330
328
331
337
348
364
391
423
444
442
375
308
289
289
289
291
298
301
305
309
312
313
311
326
327
322
327
325
193
564
355
332
337
340
348
358
380
406
433
446
429
355
300
289
289
293
297
300
305
306
309
306
319
321
315
315
318
187
539
346
325
328
333
341
353
374
403
429
443
415
338
290
284
285
289
292
296
301
304
305
304
316
319
315
317
320
196
563
351
328
330
334
343
353
372
399
428
444
424
350
296
288
289
292
296
299
303
309
309
313
307
329
323
320
320
324
199
510
344
329
336
339
343
359
377
405
427
439
408
341
299
291
294
296
300
302
306
308
305
324
321
318
321
321
202
492
344
330
331
337
345
358
376
405
429
439
401
327
286
283
285
289
293
298
298
302
304
306
308
327
317
316
317
302
326
418
331
327
330
336
345
359
382
412
434
438
389
318
291
290
291
293
298
303
306
310
312
312
315
330
321
323
324
281
424
388
332
333
336
341
350
364
387
417
436
436
379
311
292
291
292
297
299
305
307
311
310
309
324
323
321
323
324
198
520
347
330
333
339
344
360
376
403
426
441
414
344
300
289
291
294
299
301
305
305
309
306
309
326
314
315
317
277
407
379
325
324
327
335
344
358
381
411
431
430
373
308
285
286
288
292
295
300
302
304
307
305
326
319
317
319
316
248
460
334
328
332
336
345
357
379
406
429
437
398
325
292
289
291
294
296
301
305
307
310
311
309
313
327
319
319
320
262
466
370
331
331
334
339
349
365
388
416
432
432
381
317
291
291
293
296
301
304
305
309
305
318
320
315
317
319
201
521
347
326
328
333
341
351
370
396
422
434
414
344
294
286
286
289
293
299
300
304
305
303
325
316
315
317
316
250
457
334
328
331
336
345
358
379
408
431
439
398
327
295
293
295
298
302
306
310
312
314
312
332
323
323
326
324
231
478
343
334
335
340
349
364
381
408
432
440
407
337
299
293
301
299
305
307
309
312
311
324
325
319
320
324
213
522
350
330
333
338
345
358
376
402
425
437
421
351
297
286
285
289
295
298
299
301
300
320
314
312
315
316
194
505
336
324
327
334
342
354
375
406
431
443
402
326
289
286
288
291
295
299
302
307
308
312
324
318
319
321
271
435
382
330
328
333
338
350
364
388
416
434
434
377
309
289
287
291
292
297
303
304
307
303
320
318
314
317
318
223
458
339
325
329
334
343
355
378
406
428
437
403
327
288
284
285
289
293
297
299
302
299
311
315
310
313
315
202
546
348
321
322
327
336
347
366
392
420
436
422
350
295
286
287
289
293
297
302
305
308
305
322
319
315
319
321
183
532
343
329
334
338
345
358
378
407
431
443
413
340
297
293
293
294
301
303
308
312
313
314
311
334
322
322
326
317
288
436
344
333
337
343
351
365
385
412
434
440
404
330
292
285
287
293
297
301
302
304
306
307
303
316
319
315
317
319
191
561
348
325
328
334
341
351
369
394
421
436
423
354
298
286
289
290
295
298
303
307
310
312
310
313
326
321
322
324
267
460
383
334
332
335
341
351
366
389
418
438
437
382
312
291
291
291
295
299
303
307
311
312
313
308
327
324
323
324
327
212
493
345
332
335
343
347
361
380
405
430
441
416
345
297
288
289
293
295
300
303
303
310
314
312
315
315
189
502
342
324
327
332
339
350
373
402
429
440
404
326
287
285
287
290
294
301
304
308
310
312
310
321
323
320
322
325
188
582
352
331
332
336
343
354
372
396
427
437
427
360
303
290
290
292
296
299
305
305
312
315
315
318
320
213
464
341
328
331
335
345
358
378
407
431
440
397
321
283
280
282
287
291
295
298
301
303
303
302
319
316
316
318
284
393
401
328
326
330
335
344
359
383
412
433
441
392
318
290
289
291
296
296
302
306
310
311
321
318
321
321
204
492
344
334
333
340
348
360
383
409
440
447
409
335
291
290
292
292
297
303
306
309
311
315
316
317
319
296
353
392
331
326
329
334
343
359
381
409
428
433
380
309
282
282
285
290
295
299
301
303
306
306
310
321
319
320
323
213
554
356
329
332
336
345
352
369
394
424
437
434
364
306
293
293
294
299
302
305
309
314
318
318
322
324
207
527
354
334
332
341
347
359
374
402
430
443
418
346
297
290
292
294
300
304
308
306
316
320
315
318
318
207
479
340
322
325
331
339
351
372
400
424
436
393
320
281
280
281
284
288
292
297
297
304
309
306
310
311
201
485
333
322
323
329
337
351
371
403
429
438
395
319
288
288
289
291
294
297
302
307
310
310
314
309
325
323
319
326
324
194
551
346
332
332
336
345
356
373
399
425
439
427
358
306
295
294
298
301
303
306
315
316
316
316
320
263
449
361
332
332
335
341
350
370
396
426
440
427
359
301
288
290
290
296
300
309
300
306
314
315
316
317
316
254
455
337
326
330
336
345
358
377
409
429
438
396
323
287
285
285
288
292
298
300
305
308
309
310
314
273
417
367
325
324
327
334
343
360
385
418
439
433
366
303
287
288
288
291
296
299
307
308
310
311
316
250
465
355
326
327
328
336
348
366
393
422
448
429
353
301
291
290
292
292
295
302
305
303
318
323
318
318
322
233
501
362
331
334
336
340
356
372
395
415
440
433
369
306
292
294
292
300
305
315
321
313
320
322
244
485
354
332
336
336
345
359
373
399
430
442
419
344
296
287
286
292
295
298
302
313
316
309
312
313
234
458
330
323
324
329
338
351
374
404
426
435
382
306
281
280
281
284
286
287
297
306
301
304
306
235
470
349
314
316
320
328
339
357
385
416
434
418
348
291
286
286
288
291
292
296
302
320
312
311
315
302
320
409
327
327
330
334
346
360
385
413
434
438
381
315
292
292
292
294
298
302
305
304
318
319
315
316
319
209
534
348
325
328
331
339
350
368
394
420
433
420
350
298
290
292
294
297
302
306
310
311
310
331
322
319
324
322
252
460
340
334
336
338
349
361
384
408
432
439
403
335
296
294
295
297
302
308
309
311
309
328
322
318
320
321
212
480
342
329
331
336
347
358
379
405
427
438
404
331
292
289
289
293
297
300
303
305
303
322
318
314
314
316
183
539
341
325
327
333
340
353
370
396
424
439
413
344
296
292
294
298
299
304
308
311
315
311
324
328
323
327
326
214
541
360
336
339
345
351
362
380
399
428
438
431
365
312
301
299
301
305
309
317
314
327
335
326
321
328
232
505
363
335
338
342
350
360
378
401
431
448
435
358
302
286
287
291
296
298
298
303
327
309
308
309
290
323
408
326
316
325
328
338
356
382
409
437
435
374
301
272
277
277
281
285
288
287
315
304
305
301
288
275
455
315
310
314
324
334
353
380
414
439
446
373
294
273
270
276
278
284
291
286
305
305
302
305
308
146
548
330
315
322
326
337
352
376
410
438
448
401
317
276
276
277
281
288
288
296
313
303
306
313
235
478
382
321
322
324
339
347
367
400
433
451
441
353
294
283
288
286
285
301
304
305
323
317
316
324
315
262
458
343
334
338
342
356
374
394
429
452
459
399
323
292
294
292
296
300
305
314
325
311
312
318
221
499
361
320
322
329
339
349
372
400
431
448
424
346
288
281
282
284
292
290
298
318
305
304
312
286
326
414
325
319
322
330
341
359
384
415
439
438
364
295
273
273
275
277
278
280
304
293
293
295
297
182
496
317
307
316
321
335
348
375
409
438
444
387
310
283
284
287
287
291
290
301
314
309
310
317
258
426
387
322
324
331
343
353
371
396
427
445
435
367
307
291
292
294
298
303
300
326
320
318
319
322
198
504
345
332
337
341
350
361
384
412
434
444
402
327
291
286
289
294
294
295
317
311
305
307
309
174
514
332
320
322
328
337
350
373
406
433
443
391
316
284
284
282
286
289
291
304
313
307
308
310
232
491
360
322
323
328
335
347
366
393
422
442
424
348
294
285
288
289
291
299
301
304
305
312
321
314
316
321
224
531
363
330
330
332
343
352
371
399
425
444
437
368
304
289
289
292
296
301
305
307
307
326
316
316
319
305
313
432
332
328
330
340
346
361
384
413
433
441
386
315
287
289
287
295
296
301
298
317
315
314
316
318
195
519
351
331
331
337
344
358
378
405
426
443
415
346
297
285
290
295
301
304
304
324
314
313
316
315
205
470
340
322
327
334
345
356
383
409
434
439
403
318
286
285
289
290
296
296
306
319
306
309
311
221
497
355
322
323
327
336
348
366
394
423
439
419
343
289
282
282
288
291
291
294
318
307
307
309
298
287
423
325
322
325
332
342
356
382
413
435
434
373
307
286
287
288
297
297
303
304
303
327
313
317
320
311
285
428
333
329
336
340
350
363
388
416
433
440
394
326
293
291
292
298
303
304
308
313
315
313
316
318
209
518
354
326
326
332
339
352
371
397
424
437
414
341
290
282
284
289
292
296
298
303
303
304
306
323
315
316
319
288
386
403
329
328
331
338
345
361
385
413
434
442
392
318
293
292
292
295
300
304
309
309
311
318
326
324
325
328
249
494
373
337
338
340
350
359
374
399
429
443
442
376
315
294
293
296
300
302
306
307
310
306
323
321
315
316
319
182
515
340
323
325
331
339
352
372
400
424
437
408
333
289
280
283
287
291
295
299
302
304
303
317
318
313
315
318
179
568
342
327
329
332
341
352
370
400
428
441
424
351
301
289
293
295
297
302
307
305
313
307
325
323
322
322
323
217
478
347
331
335
337
347
362
382
409
430
445
415
341
296
291
290
296
298
304
304
306
304
325
313
311
315
295
337
395
326
320
323
334
340
357
381
409
431
437
379
306
280
280
282
286
290
294
297
294
313
312
308
309
312
161
552
334
320
324
328
336
349
370
400
430
443
410
337
291
287
289
291
295
298
306
306
309
314
329
320
320
323
274
438
383
334
335
337
347
354
373
396
426
447
444
385
320
295
293
296
301
304
308
312
313
310
319
330
320
322
324
219
524
358
328
332
334
342
355
373
400
430
446
