294
304
289
478
242
332
331
329
333
331
351
362
361
363
365
338
309
298
313
308
295
297
301
302
313
322
314
306
307
312
294
523
224
323
323
321
334
340
338
360
369
370
364
347
318
303
304
309
314
309
318
303
323
325
314
316
324
299
585
236
327
322
330
332
332
344
352
352
354
345
316
292
286
285
281
286
283
284
283
282
289
296
289
288
289
289
307
403
285
293
300
304
310
320
329
343
345
337
330
308
291
299
295
305
310
318
324
323
325
340
357
341
345
347
341
342
602
293
354
369
373
375
378
395
404
407
415
395
368
352
339
331
339
338
338
331
346
351
331
331
326
330
333
474
305
335
335
337
337
344
351
356
361
358
348
322
310
304
304
309
310
318
320
328
338
328
321
318
321
306
582
245
320
324
328
335
340
351
363
370
370
358
335
314
307
307
310
314
318
321
323
326
329
338
351
348
339
339
339
324
545
253
349
349
354
359
367
377
388
401
404
404
385
364
347
344
343
347
346
348
344
347
344
351
357
337
338
336
331
360
393
318
332
334
331
336
342
350
358
359
357
343
320
302
294
294
294
298
303
301
301
319
313
299
296
297
293
378
279
300
304
309
314
316
326
337
347
348
344
329
303
289
285
291
295
298
300
303
302
305
304
306
317
327
316
310
315
317
356
393
316
324
330
334
339
344
355
363
369
372
361
336
318
314
315
315
320
321
323
322
326
323
321
325
327
311
291
274
245
241
369
221
254
259
259
263
254
268
284
289
322
315
320
295
287
272
273
273
273
292
292
286
304
336
332
323
339
351
368
612
359
414
411
433
429
447
431
418
437
440
408
406
369
360
394
396
349
339
336
340
333
348
337
313
321
333
248
561
240
298
284
315
292
295
311
322
332
347
334
294
256
238
270
266
272
287
278
276
295
302
321
316
304
307
324
298
573
278
334
334
344
325
336
402
354
368
364
370
346
315
318
320
316
343
329
333
344
336
363
357
345
343
355
334
542
280
349
365
370
358
377
394
384
400
398
401
385
351
347
362
340
353
375
356
380
382
360
361
359
357
406
354
347
329
342
344
349
339
353
363
357
359
346
315
299
299
295
299
304
302
312
306
313
295
293
291
274
448
226
307
306
323
324
322
336
349
357
363
363
336
321
320
294
309
287
276
306
322
330
334
317
334
310
300
557
241
331
311
325
321
330
336
360
342
363
338
296
291
279
273
275
306
270
299
315
317
322
317
303
332
316
532
307
325
363
330
336
316
318
321
323
313
288
238
215
193
210
192
195
198
230
206
189
185
184
202
417
129
178
209
165
214
201
195
254
345
662
664
666
664
664
664
662
659
614
570
549
535
456
449
422
426
587
273
358
313
290
297
306
304
301
322
336
303
300
293
273
273
277
261
282
299
317
287
297
296
283
522
663
664
662
639
579
548
550
520
505
500
475
458
414
379
379
360
384
332
330
330
341
316
306
294
286
270
472
183
272
261
263
273
268
275
274
276
259
245
205
176
141
131
109
46
31
51
62
41
19
26
0
69
0
0
33
38
69
87
108
132
155
189
203
185
187
192
198
225
250
261
290
312
308
306
313
313
279
533
212
284
274
292
307
314
326
326
324
327
310
267
276
269
278
331
348
365
358
390
388
377
375
369
340
579
269
358
343
336
322
307
291
274
269
266
268
263
267
280
297
313
332
346
343
364
414
457
446
453
453
441
662
433
550
542
527
515
548
548
537
528
518
489
441
383
396
395
372
393
403
410
426
406
407
411
428
384
658
325
364
381
361
341
370
376
364
360
369
335
291
279
277
277
283
291
315
292
308
340
320
304
302
304
283
427
201
234
232
241
251
249
269
287
279
306
284
246
267
234
235
247
266
278
312
306
311
327
331
324
432
326
333
348
343
361
343
353
346
338
329
308
282
252
254
271
273
280
290
286
280
268
285
304
287
535
258
347
367
384
394
412
426
432
439
444
436
415
393
388
377
368
361
357
367
364
339
329
327
335
337
444
329
330
328
323
329
336
321
332
330
325
285
249
221
209
206
214
228
258
277
309
468
664
665
665
665
665
665
663
661
659
626
594
562
660
663
664
664
664
664
664
664
661
596
517
454
425
399
377
432
340
310
297
278
267
263
268
279
297
301
305
278
251
232
227
216
206
185
180
175
141
119
105
96
65
324
0
80
75
82
83
96
115
124
131
122
110
86
81
97
110
145
164
148
181
216
203
175
199
221
206
467
170
266
250
266
251
239
238
266
275
306
331
272
278
263
270
253
251
263
294
320
311
345
343
340
346
579
332
371
360
369
349
348
365
382
379
395
409
375
338
311
305
315
328
324
332
386
423
469
486
491
467
657
335
408
398
392
387
406
412
438
452
447
433
406
362
345
322
324
315
332
343
367
376
360
354
349
318
452
228
304
299
300
313
321
326
339
340
342
338
318
291
274
261
256
249
250
242
246
247
221
218
224
222
303
235
274
283
292
298
303
315
332
365
363
378
348
317
295
282
276
279
282
288
306
285
268
290
312
325
615
288
377
378
376
377
371
378
393
418
425
411
395
381
383
393
419
416
430
445
458
426
424
408
389
468
320
371
361
356
348
352
355
361
362
361
367
361
351
335
337
348
348
344
349
348
349
307
298
272
366
205
243
226
219
232
220
218
220
220
205
193
163
150
154
158
167
177
199
206
211
194
193
211
195
450
144
237
240
254
259
264
277
285
279
285
294
280
268
280
284
282
304
333
346
343
357
371
370
522
308
353
309
279
262
274
283
294
316
325
332
316
303
310
308
311
322
345
344
334
330
330
333
404
340
346
348
355
362
371
384
401
410
414
409
393
366
364
358
362
364
383
389
370
374
370
367
368
515
338
359
352
350
353
358
370
378
378
376
356
328
317
317
312
321
322
339
337
321
325
332
331
386
365
342
352
357
372
381
389
407
433
420
426
408
383
378
370
373
379
381
397
390
379
378
382
368
531
321
398
411
429
436
454
468
485
502
504
497
470
441
429
419
414
405
397
399
392
362
338
320
300
272
530
207
255
251
247
238
246
233
249
254
253
244
221
191
186
188
189
194
205
223
208
207
208
211
195
435
139
234
232
242
247
255
265
279
289
291
290
271
253
251
250
259
268
264
274
283
269
270
274
274
281
439
258
287
290
301
310
325
344
360
373
382
376
360
358
365
374
390
407
420
436
459
453
449
452
454
432
660
365
452
449
449
448
450
455
458
455
451
434
400
367
353
346
342
338
330
318
298
284
282
284
257
243
246
247
231
469
194
241
245
247
248
253
259
262
260
258
245
220
200
193
194
199
204
211
216
236
236
227
233
247
251
370
225
298
300
309
323
360
373
398
415
432
425
416
409
411
409
394
387
392
400
412
426
417
403
372
346
322
622
283
318
306
294
296
285
273
285
301
321
308
287
266
252
247
255
235
204
223
253
254
288
299
337
363
372
439
398
397
399
392
392
380
374
425
458
471
484
490
465
436
432
420
392
393
361
341
341
344
314
293
272
276
274
436
237
279
281
287
303
316
376
379
406
434
424
405
396
371
370
355
352
336
332
339
327
304
291
268
241
506
177
274
284
281
279
284
285
286
280
274
259
239
218
205
192
183
187
195
214
216
211
226
234
241
391
264
335
362
399
430
463
493
526
544
559
575
564
544
537
524
510
489
467
456
462
451
436
433
428
394
642
323
410
408
412
409
410
413
417
425
426
414
378
346
318
273
239
221
221
231
210
194
188
186
154
433
81
169
148
131
121
129
140
156
167
174
173
154
150
156
170
185
201
214
243
257
243
235
245
260
295
418
283
311
329
352
367
383
396
414
426
431
414
393
374
377
384
402
421
433
429
439
452
430
422
423
423
405
652
346
409
411
410
415
415
420
420
420
408
391
360
339
322
319
315
312
311
310
328
317
294
291
288
281
392
239
288
291
296
298
310
323
336
345
350
346
327
306
298
302
304
312
317
316
317
332
333
315
311
314
317
352
415
312
317
324
330
337
344
356
367
371
374
365
342
332
332
334
337
342
346
345
348
360
372
354
348
346
352
335
596
288
340
342
343
345
349
358
366
363
361
342
311
288
278
275
275
274
272
270
267
269
280
265
251
250
250
227
509
146
258
258
267
273
282
299
312
312
324
309
288
268
254
255
257
261
263
270
269
266
282
291
284
286
294
301
337
409
309
321
330
338
349
360
376
389
393
395
385
360
352
348
358
365
373
375
381
376
383
394
387
375
373
376
360
626
301
360
360
361
362
364
372
382
383
381
367
338
319
309
306
309
310
313
314
315
331
329
315
312
314
305
475
233
334
326
331
331
335
345
352
357
356
338
315
267
254
227
218
214
209
210
208
213
229
229
217
223
224
194
470
119
225
229
237
238
250
266
285
296
305
301
283
277
287
303
316
335
355
373
377
409
412
399
411
424
426
561
407
453
456
463
464
459
473
477
480
474
473
449
422
404
398
397
400
398
391
387
402
409
396
372
355
339
307
598
224
319
323
319
310
313
325
348
361
373
368
335
295
300
298
290
292
302
305
297
296
296
302
279
270
268
265
270
437
239
272
280
297
316
338
354
367
373
375
367
341
314
304
301
299
299
298
297
312
304
289
289
294
281
471
223
328
335
348
362
375
388
401
412
417
412
391
365
352
347
345
343
339
335
350
350
327
321
320
317
361
348
307
311
315
321
326
333
341
348
348
346
332
304
289
286
287
292
294
295
306
318
305
296
300
305
292
529
251
295
294
299
295
296
302
309
307
305
297
268
248
237
243
241
239
259
271
247
242
246
245
239
485
200
270
275
283
291
303
317
331
338
343
337
321
312
318
326
335
341
355
374
366
353
357
360
342
613
272
378
380
384
389
397
406
415
419
418
409
382
359
351
350
351
352
353
362
374
356
346
348
348
324
599
248
343
340
343
346
353
360
370
376
374
367
342
323
316
318
324
328
336
340
344
347
354
378
362
357
359
361
345
518
275
366
362
366
368
371
375
387
388
390
381
361
334
319
312
309
312
311
312
311
325
313
296
293
290
282
388
240
286
284
285
286
291
296
304
307
303
302
280
255
249
250
254
262
265
273
278
283
294
313
306
301
306
312
294
572
224
326
330
338
348
357
368
382
390
393
389
372
353
351
352
356
366
367
371
367
359
362
333
301
285
265
230
497
148
243
246
247
262
275
297
323
338
346
351
328
316
312
314
324
330
339
341
359
368
355
359
364
367
380
520
349
375
377
382
385
389
398
404
407
408
391
366
354
347
342
338
338
335
332
341
335
312
304
301
297
355
336
295
296
302
306
314
321
332
344
352
352
332
307
299
301
307
315
320
324
325
327
341
340
324
326
330
323
435
295
337
333
339
342
346
354
366
375
379
376
354
327
316
312
315
319
321
323
324
326
326
329
337
348
333
334
339
345
356
502
335
351
358
360
362
365
376
381
380
373
360
329
305
297
293
293
292
290
288
287
303
281
273
269
269
241
531
172
269
268
269
263
256
254
256
257
259
258
240
227
224
223
220
215
204
202
219
242
261
255
251
271
292
280
586
213
319
324
331
339
348
364
383
394
400
398
373
350
344
344
348
352
354
355
359
377
372
357
356
356
342
531
262
360
355
360
363
368
376
383
387
384
377
352
324
312
309
311
313
312
312
308
305
309
326
307
296
298
300
286
568
242
302
305
309
315
318
328
339
348
351
349
324
303
299
302
308
315
318
323
326
329
346
346
334
334
336
331
437
304
349
350
356
359
368
377
388
398
399
400
389
362
359
367
377
390
398
406
413
427
449
448
454
479
504
511
662
473
525
521
522
526
519
506
498
475
438
390
320
265
227
198
185
169
159
148
141
153
148
135
143
155
151
359
86
197
196
207
216
230
249
267
283
292
295
278
258
254
258
268
280
288
298
324
340
347
355
350
348
370
411
317
324
325
322
325
330
335
340
340
339
324
296
281
277
276
279
281
290
303
290
279
275
275
255
518
179
286
290
299
307
319
337
353
363
366
362
342
326
319
319
322
326
328
336
358
350
338
342
346
332
554
257
364
367
368
372
376
382
392
397
404
403
387
367
363
363
363
366
366
366
385
382
368
367
371
362
457
371
368
370
381
390
412
436
450
452
447
438
405
363
341
329
319
322
320
315
328
329
310
300
301
298
301
465
261
281
288
290
292
301
315
325
324
323
301
272
260
269
271
266
291
289
294
310
312
290
285
300
319
335
554
359
411
445
477
502
523
545
559
550
527
493
440
398
367
353
342
341
350
362
372
377
388
373
350
340
328
291
583
184
307
436
326
368
441
473
503
532
542
562
626
642
664
665
665
665
665
665
665
664
663
641
497
411
328
313
248
161
153
140
137
126
128
129
114
126
99
99
72
65
65
66
80
86
91
94
104
93
85
96
104
85
357
1
116
114
127
142
158
173
189
197
190
183
156
124
122
120
120
115
103
97
67
28
29
40
51
100
140
79
112
125
133
140
157
181
201
214
230
227
223
216
221
231
235
244
266
279
260
265
275
286
299
491
278
337
350
360
372
385
399
422
419
423
418
395
387
387
407
421
428
432
441
423
402
393
381
358
628
286
366
369
378
376
395
404
411
426
430
425
413
395
399
397
395
406
431
419
396
389
377
357
449
311
334
333
328
330
333
336
344
345
346
345
329
316
309
312
322
327
336
361
368
352
362
365
368
436
391
382
404
434
461
530
580
633
659
662
662
662
661
643
593
560
517
488
456
424
400
379
354
319
304
281
272
298
303
222
221
211
200
196
196
206
215
221
229
218
201
197
196
207
218
228
238
248
278
277
266
271
284
287
422
264
339
347
357
364
379
388
419
469
513
530
540
543
566
568
569
552
539
541
525
526
533
521
501
464
482
437
661
348
418
408
408
402
389
375
364
372
352
335
305
283
274
260
260
256
243
234
238
236
195
166
157
142
122
411
72
134
144
149
170
139
165
196
207
203
189
171
151
146
155
171
187
202
224
241
238
247
259
270
332
316
292
312
334
331
362
371
388
413
418
421
406
383
360
346
341
329
306
300
297
294
258
241
237
235
223
421
189
226
226
230
237
249
259
281
285
296
313
275
275
292
322
328
364
394
365
445
427
427
428
434
451
477
636
435
428
440
457
432
426
428
451
453
388
393
344
329
305
283
309
301
268
286
293
317
238
213
231
259
344
219
303
311
304
271
227
192
665
665
665
665
665
665
665
665
665
665
665
665
665
665
665
665
658
454
349
488
120
157
89
36
0
0
0
0
0
0
0
0
0
0
0
0
0
0
0
0
0
0
0
0
0
0
0
0
0
0
0
0
0
0
0
0
0
0
0
0
0
0
0
0
0
30
98
142
165
203
245
273
395
358
378
384
411
428
427
424
428
412
391
366
321
261
208
156
125
84
60
63
32
0
0
0
0
3
0
0
0
0
0
0
0
0
27
51
67
81
87
115
134
156
176
204
242
253
250
264
277
269
493
224
325
330
345
361
378
394
417
430
441
463
445
439
437
437
440
443
445
462
441
426
430
425
403
661
338
437
439
449
457
471
481
495
498
501
491
465
447
438
420
412
410
420
441
432
420
422
419
392
660
325
665
665
665
665
665
664
664
665
664
663
661
558
517
487
460
438
434
427
384
357
335
305
277
488
203
255
241
228
221
217
229
238
236
231
218
193
179
176
185
200
215
230
254
227
186
173
169
150
380
69
186
184
195
202
208
217
226
239
248
252
238
225
224
232
241
251
259
278
303
284
284
292
301
315
483
306
336
345
354
363
375
388
399
403
404
391
368
355
352
351
350
353
364
386
384
377
379
382
360
645
290
384
383
386
388
393
399
408
411
408
401
371
356
343
341
338
336
347
352
322
315
312
309
321
394
270
296
298
300
295
300
304
306
304
295
280
250
240
241
246
255
263
294
290
276
278
284
271
491
191
307
308
313
322
325
335
347
353
357
353
335
316
312
311
311
313
319
340
352
338
336
343
348
340
586
317
365
367
368
368
368
377
383
379
375
357
333
313
306
305
302
303
303
299
314
313
296
300
302
297
398
271
308
303
312
315
322
329
337
347
344
342
326
301
288
288
295
301
304
314
332
319
307
302
304
279
527
190
300
298
302
307
313
325
336
342
344
345
328
317
313
319
326
338
347
364
383
371
361
361
363
340
630
251
357
355
357
362
367
375
383
385
382
373
345
327
320
317
319
321
323
325
323
339
340
322
320
322
318
378
344
316
317
322
325
329
336
347
354
357
355
336
315
305
299
303
310
314
315
317
330
336
319
308
306
305
292
544
251
305
310
315
321
331
342
350
349
351
342
314
297
291
291
294
298
296
303
311
295
281
278
274
254
556
179
278
281
286
294
303
316
332
341
341
332
309
291
288
290
295
299
306
308
324
335
320
314
313
315
326
486
299
319
325
326
330
336
345
354
357
356
339
309
297
294
296
300
305
307
309
321
333
318
313
314
315
302
584
265
329
340
351
360
375
383
399
406
407
396
371
351
345
342
345
349
347
346
345
359
366
345
341
341
341
335
533
295
336
339
340
343
350
354
364
365
361
347
315
297
291
284
280
272
263
257
258
231
205
198
198
170
452
99
190
194
193
200
205
217
229
234
236
226
210
199
203
205
217
222
231
241
261
256
245
247
249
230
538
187
277
292
305
314
330
345
359
368
366
356
330
316
306
306
307
314
322
332
346
334
326
326
329
306
604
277
331
334
337
341
348
360
374
381
384
371
347
336
337
338
341
343
347
347
354
362
353
351
353
355
335
644
296
373
380
387
389
394
401
410
415
413
398
369
346
339
326
322
323
324
324
322
320
323
323
330
342
327
321
322
323
297
599
253
325
324
331
336
347
355
366
373
373
371
345
322
313
313
317
317
316
319
316
314
322
336
326
316
320
324
311
499
256
338
341
350
358
368
379
394
407
411
411
390
370
360
361
363
368
371
370
370
371
371
373
384
399
396
386
387
390
368
582
297
376
372
371
371
368
375
382
385
380
373
347
318
309
303
301
305
304
304
303
302
300
305
315
290
284
286
287
275
505
237
282
285
289
294
303
313
323
330
325
321
292
279
272
274
276
280
286
286
288
304
303
293
294
299
302
364
340
311
317
324
332
340
353
370
383
389
393
373
350
341
343
342
346
350
355
356
359
358
367
382
377
369
368
371
355
525
297
365
356
356
358
359
365
372
376
373
366
342
310
297
294
294
292
292
293
296
292
296
311
294
283
283
287
262
564
206
303
306
310
315
317
324
332
338
345
338
310
291
287
284
289
294
297
302
303
321
326
315
318
322
325
353
438
321
334
337
343
343
354
370
380
385
383
364
339
327
323
322
325
326
327
329
325
323
326
331
336
320
312
313
311
359
363
304
305
309
308
309
311
318
323
319
318
295
264
254
245
249
248
247
246
246
246
249
269
245
239
247
251
232
540
185
289
296
312
316
326
338
351
357
363
359
340
323
322
328
334
342
351
359
365
374
392
386
381
381
388
367
658
294
390
388
396
398
402
411
420
420
418
399
368
332
314
310
312
317
328
316
318
320
323
335
338
360
413
475
498
662
612
593
649
644
653
621
612
598
569
555
525
573
539
542
588
579
521
471
434
398
383
354
341
305
281
273
265
254
431
208
233
227
225
218
229
239
248
252
253
240
211
201
195
200
206
216
228
240
248
247
255
271
264
269
275
285
277
507
253
295
304
313
316
315
322
335
379
396
385
347
332
324
319
320
323
327
334
365
373
378
378
383
397
380
372
374
380
368
628
320
334
312
272
240
209
190
183
184
180
164
135
116
113
117
124
131
126
133
138
144
159
180
179
176
183
198
194
369
160
247
254
268
283
295
315
335
354
362
365
353
335
331
338
341
351
353
361
367
373
377
397
394
383
389
393
384
552
341
406
405
410
414
417
425
435
440
440
433
407
376
362
358
358
360
360
361
360
362
361
360
356
357
357
355
354
350
355
379
351
345
343
340
326
566
285
327
329
334
338
350
364
381
393
393
390
360
341
330
333
329
335
328
336
337
322
322
329
312
341
279
275
278
287
309
419
295
330
333
337
349
365
392
412
426
439
438
423
418
413
414
414
410
411
402
394
384
386
395
368
346
341
333
317
550
259
305
303
298
295
296
301
305
304
302
319
288
259
251
235
219
204
196
194
188
199
199
182
180
178
178
233
206
176
191
197
209
222
234
247
257
264
264
245
225
216
215
223
237
247
261
276
319
350
354
379
409
440
487
661
506
559
587
605
620
606
594
619
617
662
665
665
665
665
665
665
665
665
664
664
664
664
661
631
552
479
662
350
390
370
349
335
321
306
296
292
283
273
223
174
121
65
25
13
0
1
0
0
0
0
0
0
0
0
0
159
0
0
64
80
111
162
185
250
319
352
351
309
276
249
342
662
665
665
665
665
665
665
665
665
665
665
663
639
557
507
459
448
469
460
443
464
429
365
326
313
261
216
240
247
198
204
179
171
166
176
167
127
386
33
118
133
128
129
128
141
149
159
150
150
126
95
72
66
75
67
58
75
134
216
186
192
469
299
664
665
665
665
665
665
665
665
665
665
665
665
665
665
665
665
665
664
655
502
439
378
324
283
248
218
181
195
169
417
143
147
123
95
78
66
60
64
59
52
44
17
0
0
0
5
13
25
30
39
46
58
77
66
74
85
90
104
204
100
115
124
132
142
157
173
190
200
204
207
185
181
184
194
206
215
225
234
255
266
257
268
274
278
309
354
280
286
302
310
318
330
336
349
364
371
358
331
329
327
328
346
351
356
356
372
380
380
381
380
385
368
654
333
402
406
402
405
412
408
418
413
404
386
351
320
304
297
300
305
313
310
315
320
307
303
300
299
295
471
296
305
304
306
303
299
309
307
295
288
273
242
223
219
235
229
224
225
228
237
221
214
214
205
183
477
156
212
227
236
245
261
279
299
316
325
325
293
281
271
266
255
253
255
262
269
266
251
246
251
234
549
220
292
303
315
326
338
354
370
381
379
372
348
335
338
339
344
351
351
364
370
354
351
347
346
327
572
307
340
342
346
349
358
368
381
388
389
370
343
332
327
319
321
318
322
338
332
317
317
319
308
431
289
327
329
339
343
352
367
385
397
404
397
366
338
331
329
328
329
330
342
343
327
326
335
337
343
465
326
337
342
347
353
360
370
381
381
375
349
319
306
302
301
303
302
302
314
319
301
299
299
301
284
525
270
296
300
303
309
318
332
348
360
367
355
330
317
317
316
319
328
327
329
325
319
321
289
271
268
270
247
558
208
292
295
296
298
308
319
333
344
348
345
322
308
307
312
322
334
344
350
352
349
355
362
344
334
331
331
301
626
276
350
363
371
380
389
398
405
406
403
389
356
336
330
326
329
332
336
337
335
334
338
343
352
362
347
348
352
353
358
511
339
349
351
352
354
362
374
386
390
386
366
334
311
305
299
299
300
299
298
301
301
308
312
316
328
346
330
324
322
319
287
583
223
304
302
305
307
312
320
329
332
332
336
314
295
290
288
289
292
292
293
290
286
292
304
293
294
299
308
300
564
283
328
335
341
349
359
373
386
394
393
380
345
327
323
319
322
326
330
332
334
334
334
335
338
351
340
333
333
336
307
620
256
332
329
333
331
333
339
350
353
354
349
319
295
286
286
290
301
305
313
316
323
323
325
340
351
338
335
338
342
341
483
318
337
341
341
340
347
358
374
382
382
369
334
312
302
297
299
300
303
304
302
310
327
323
322
333
346
335
647
307
371
375
377
378
380
387
394
397
396
384
354
334
331
331
334
338
340
344
342
340
340
335
344
334
319
312
308
284
465
235
298
294
300
302
306
315
325
335
337
335
313
287
276
277
280
288
293
299
304
305
308
310
317
333
322
321
325
328
302
628
266
332
334
337
343
351
361
376
382
387
379
347
320
309
305
303
305
309
313
313
312
317
322
341
325
316
319
323
301
619
251
329
328
332
332
338
344
357
361
364
357
335
313
308
305
312
314
317
320
320
320
340
332
320
320
319
294
549
227
320
318
320
322
324
330
342
351
353
346
320
293
284
280
278
276
275
274
271
269
266
265
275
283
280
272
276
279
347
295
272
273
288
292
304
315
341
361
379
396
388
373
364
367
380
407
432
456
449
429
437
426
385
378
356
349
352
421
323
317
322
324
327
357
353
357
380
351
370
323
328
287
270
236
665
665
665
665
665
664
665
665
665
664
663
663
528
444
400
319
327
266
259
231
251
197
135
109
22
52
24
14
32
44
42
28
44
40
57
81
59
78
54
351
72
124
101
104
127
123
136
186
183
219
227
182
189
185
197
190
179
211
207
224
229
216
233
223
238
229
431
229
250
259
262
277
301
327
342
351
355
348
316
303
303
318
313
330
334
334
367
327
364
370
342
353
333
518
337
354
361
344
338
350
364
364
358
365
377
321
303
315
326
335
331
327
366
332
343
371
354
359
367
365
334
655
326
368
373
368
363
372
380
392
409
398
404
367
327
333
328
331
335
333
338
331
333
340
333
331
343
278
597
289
337
320
331
333
330
328
361
352
349
364
309
314
301
311
294
295
314
309
308
305
337
327
329
333
328
306
636
308
344
350
350
346
359
365
397
388
381
393
355
340
339
334
356
350
355
359
361
372
358
365
380
375
329
568
352
375
387
377
383
394
368
409
403
391
396
362
353
336
339
344
338
324
335
349
352
337
333
342
347
305
561
311
334
341
338
347
344
356
372
376
373
371
334
320
321
319
321
322
316
317
317
315
319
325
324
323
325
330
298
579
306
327
334
332
339
350
364
376
380
381
370
341
320
314
320
327
335
342
349
354
364
369
370
378
396
383
384
385
386
369
567
356
368
366
363
364
358
365
367
365
353
341
304
272
259
251
246
241
240
237
234
243
249
242
242
245
254
251
408
239
259
263
268
269
274
285
296
304
309
296
269
260
262
263
271
278
283
288
296
301
308
323
318
338
358
346
352
355
358
479
345
411
427
342
328
381
375
398
416
423
406
386
334
314
317
300
304
303
293
309
311
317
323
316
331
348
362
360
655
331
368
407
377
390
408
393
439
403
438
397
381
341
327
333
320
356
329
338
335
360
353
354
328
349
304
498
290
336
369
338
355
354
361
375
371
396
404
343
306
313
293
305
295
317
308
301
330
315
325
332
324
330
290
494
254
315
319
320
331
329
343
352
362
368
366
356
311
294
307
280
294
293
297
300
307
315
324
321
316
311
295
540
297
318
309
315
328
330
346
363
361
350
349
317
295
291
281
285
288
297
299
301
323
306
303
305
313
278
550
285
300
312
303
313
315
327
344
340
353
337
305
284
284
282
294
291
296
289
305
309
307
311
308
311
311
359
349
320
317
320
327
328
351
360
364
376
372
358
323
315
312
310
320
312
319
321
330
338
321
324
334
322
384
340
333
333
331
348
351
354
366
383
379
383
363
337
322
325
334
324
327
326
334
332
337
334
333
328
313
467
265
333
331
336
330
344
343
351
371
358
363
341
309
300
301
306
297
309
306
311
313
321
320
314
319
313
290
601
252
314
316
318
323
328
337
352
362
362
354
361
321
297
306
318
329
322
332
346
336
358
357
350
347
347
346
376
421
343
343
349
346
358
358
366
374
375
379
367
326
316
315
316
314
316
318
316
317
321
324
338
320
320
323
321
391
319
326
320
329
329
334
338
355
357
367
372
344
315
306
301
301
307
304
307
313
310
314
325
312
311
312
314
285
545
280
309
315
315
323
329
338
351
357
355
348
322
302
297
302
311
307
312
317
314
322
328
339
330
327
329
333
321
488
320
334
337
344
345
356
360
365
371
368
355
332
309
293
299
305
299
299
306
319
318
304
304
307
306
358
330
310
317
321
325
330
334
347
347
356
347
333
303
292
287
294
297
292
297
304
302
306
306
286
285
290
260
570
251
294
299
306
318
321
337
352
367
370
368
339
322
305
307
309
313
308
306
310
310
300
293
289
280
260
527
193
271
268
276
274
277
291
296
306
303
298
266
254
243
243
253
252
264
269
273
300
280
269
282
300
278
582
261
322
332
331
343
359
364
384
389
398
394
369
347
337
339
347
353
356
368
382
378
368
371
369
353
481
330
370
375
371
378
385
391
411
426
434
435
427
399
398
406
402
421
426
431
436
443
447
452
443
438
434
422
458
513
381
367
346
333
315
304
304
295
296
281
255
224
198
198
183
187
183
188
190
193
197
197
213
235
228
222
233
245
234
407
240
282
301
299
316
326
343
359
382
382
395
371
351
343
349
343
353
352
363
359
358
361
367
365
376
366
364
366
365
339
625
319
356
360
362
363
369
382
387
400
400
391
363
342
328
331
328
332
330
333
334
335
333
345
343
338
332
328
336
313
484
291
345
355
367
381
389
403
416
436
436
437
422
392
378
374
373
381
386
381
378
372
365
362
361
368
345
337
342
335
340
483
328
329
342
338
338
347
362
362
366
365
349
312
300
294
289
304
290
306
298
299
295
294
293
296
278
278
280
271
263
477
254
274
277
285
287
293
307
323
331
329
328
299
278
288
283
279
295
296
299
292
291
301
289
271
274
278
272
395
254
298
303
305
312
321
336
350
356
369
362
354
315
308
309
310
309
319
314
321
317
321
324
329
321
321
323
310
437
279
324
322
322
330
331
336
356
355
363
362
341
316
299
297
301
308
308
309
309
309
323
325
318
322
326
320
300
601
266
326
328
330
332
344
354
360
377
368
373
340
320
312
314
321
316
322
315
326
313
328
327
301
314
305
284
490
229
314
310
315
325
328
339
346
349
347
365
348
311
306
305
304
310
312
314
335
340
323
321
324
327
316
554
287
332
335
334
337
340
355
357
361
357
346
310
291
285
280
291
283
294
288
304
308
301
296
301
308
302
482
297
307
319
316
325
330
348
358
366
374
356
320
312
305
312
318
326
320
324
324
319
330
323
339
328
325
330
324
378
377
333
326
338
331
347
349
366
375
375
376
366
335
318
326
308
320
308
319
328
328
332
331
324
331
343
329
317
314
312
281
563
231
284
289
289
295
299
308
321
325
332
334
312
293
284
287
293
292
303
312
310
324
330
319
322
325
334
335
482
329
345
350
361
376
378
383
401
402
397
373
336
319
306
301
302
300
306
306
308
313
320
306
301
295
299
319
452
313
328
344
358
376
384
395
393
392
381
341
296
268
239
234
232
240
265
278
309
340
341
369
377
400
365
635
370
393
396
399
401
412
431
436
435
440
421
386
359
348
344
335
334
335
335
317
328
335
333
322
315
321
315
291
600
276
306
316
328
322
331
351
357
363
377
355
332
291
289
284
279
281
281
277
271
271
262
265
267
280
270
249
263
281
235
491
240
275
281
289
293
305
307
328
331
328
321
292
268
265
271
270
282
280
290
291
293
290
314
299
300
304
311
291
555
283
308
314
314
324
340
345
358
363
372
371
327
312
306
297
307
311
327
316
336
340
339
348
333
327
324
323
332
392
295
307
303
303
312
318
336
333
330
328
321
295
266
258
260
266
269
280
272
295
305
290
294
305
309
330
408
326
345
352
355
361
369
383
386
389
394
379
346
327
322
323
323
321
326
327
326
339
320
316
311
312
274
555
222
314
292
306
313
320
324
339
352
352
344
323
299
290
285
288
292
296
298
308
308
313
324
355
337
344
343
352
323
633
281
351
350
350
352
357
359
374
380
379
377
363
320
309
309
303
303
311
306
304
311
300
283
283
289
262
556
191
287
281
292
300
313
330
345
357
362
365
342
325
312
317
326
327
328
332
327
340
342
330
327
326
326
359
389
319
324
317
318
333
327
340
350
347
364
342
297
292
291
292
304
302
313
317
310
321
316
310
334
331
322
319
312
301
482
267
334
332
346
352
354
367
385
384
400
400
365
338
321
309
301
307
325
300
301
295
304
285
290
281
291
275
484
234
323
332
340
343
344
349
356
358
357
343
321
287
277
280
277
281
276
279
285
279
291
284
276
281
288
276
470
233
318
316
325
343
358
380
403
417
421
423
400
370
363
357
360
365
365
358
357
365
371
357
365
362
341
446
322
346
342
345
355
349
358
369
378
379
370
346
311
303
300
305
305
313
318
324
322
333
330
324
336
332
307
597
261
326
330
334
331
334
343
349
351
354
347
326
294
277
269
272
274
281
272
292
290
274
272
281
282
283
418
262
281
279
287
288
276
289
296
290
292
273
245
233
231
233
226
242
252
254
259
272
274
273
269
272
250
536
201
281
292
297
303
317
335
345
359
367
369
349
327
319
317
325
329
335
348
346
364
368
361
368
376
347
616
304
372
377
379
383
386
395
404
410
406
397
363
333
325
319
329
321
332
329
325
327
336
339
328
327
328
330
301
597
286
323
337
341
344
351
358
365
370
370
366
328
301
289
284
271
275
276
259
260
261
243
244
256
263
230
521
192
284
286
296
297
315
324
335
344
357
357
332
319
301
301
302
306
308
303
313
319
301
307
303
311
310
461
283
308
313
312
320
327
342
354
365
369
350
330
308
311
303
309
315
318
320
333
331
323
319
330
322
315
498
309
324
322
328
333
334
345
349
357
356
340
310
289
293
289
294
303
309
317
324
325
338
351
340
338
346
346
328
554
328
344
350
360
367
378
384
392
399
394
379
342
322
303
294
296
297
301
299
305
304
321
312
309
315
303
278
508
228
303
304
306
312
330
330
345
351
354
350
329
301
288
287
293
285
284
285
297
298
286
283
284
295
266
535
248
295
304
314
326
336
348
365
379
376
371
341
331
322
323
335
333
342
347
353
363
359
356
364
367
338
639
293
364
370
376
377
376
397
399
407
410
405
370
347
339
335
339
337
339
339
340
341
343
344
345
359
397
408
409
398
389
338
642
310
384
397
397
394
382
379
379
364
351
313
266
208
163
149
143
162
183
196
207
219
228
252
246
232
228
216
195
270
190
196
197
215
223
245
250
271
275
282
294
271
245
220
217
222
229
220
227
239
223
230
262
235
229
245
245
220
467
163
257
258
266
264
278
286
281
303
308
302
282
275
255
249
264
263
269
287
280
289
309
303
292
290
298
294
326
371
279
288
299
308
324
332
345
355
371
357
357
331
321
312
321
330
328
338
330
325
337
337
349
339
333
344
344
314
635
306
354
363
379
442
461
512
574
624
628
644
604
571
545
544
541
568
565
545
522
512
506
498
487
458
446
427
414
448
388
351
326
297
263
240
223
223
222
206
197
173
141
120
114
96
100
103
107
95
93
107
90
58
61
41
40
87
65
10
35
36
36
47
65
83
99
109
118
111
105
98
106
122
137
152
178
185
206
217
214
223
247
257
392
278
344
347
350
367
378
389
412
430
435
433
414
388
365
359
351
346
358
352
348
358
346
346
341
343
343
318
588
250
326
320
327
324
349
363
374
385
388
388
364
323
306
301
296
283
261
212
191
186
186
162
156
154
170
90
338
0
0
0
0
0
8
17
0
0
0
0
0
0
0
0
0
0
21
81
103
117
109
98
92
34
0
0
0
0
0
0
0
0
15
146
193
295
344
359
278
185
72
0
0
0
0
0
0
0
0
0
0
0
0
0
0
0
0
0
0
0
0
93
148
195
238
214
192
126
98
110
15
32
79
103
124
150
166
201
142
86
130
138
89
99
128
141
175
212
231
182
180
199
180
147
132
137
113
52
55
46
59
47
39
0
0
0
0
228
0
22
29
36
60
94
130
176
221
251
239
203
174
163
148
155
160
187
172
167
164
160
137
116
120
151
190
104
121
115
142
170
178
194
158
0
0
0
0
0
0
0
13
10
0
0
0
0
0
0
0
0
0
0
0
0
0
0
324
328
330
330
330
293
0
0
0
0
0
0
0
0
0
0
91
332
326
329
329
329
0
0
0
0
331
327
329
330
329
329
0
0
0
0
0
345
303
299
!
!
!
!
!
!
!
!
!
!
!
!
!
!
!
!
!
!
!
!
!
!
!
!
!
!
!
!
!
!
!
!
!
!
!
!
!
!
!
!
!
!
!
!
!
!
!
!
!
!
!
!
!
!
!
!
!
!
!
!
!
!
!
!
!
!
!
!
!
!
!
!
!
!
!
!
!
!
!
!
!
!
!
!
!
!
!
!
!
!
!
!
!
!
!
!
!
!
!
!
!
!
!
!
!
!
!
!
!
!
!
!
!
!
!
!
!
!
!
!
!
!
!
!
!
!
!
!
!
!
!
!
!
!
!
!
!
!
!
!
!
!
!
!
!
!
!
!
!
!
!
!
!
!
!
!
!
!
!
!
!
!
!
!
!
!
!
!
!
!
!
!
!
!
!
!
!
!
!
!
!
!
!
!
!
!
!
!
!
!
!
!
!
!
!
!
!
!
!
!
!
!
!
!
!
!
!
!
!
!
!
!
!
!
!
!
!
!
!
!
!
!
!
!
!
!
!
!
!
!
!
!
!
!
!
!
!
!
!
!
!
!
!
!
!
!
!
!
!
!
!
!
!
!
!
!
!
!
!
!
!
!
!
!
!
!
!
!
!
!
!
!
!
!
!
!
!
!
!
!
!
!
!
0
0
340
326
327
328
331
339
662
665
665
665
664
665
665
665
665
665
664
664
663
663
662
665
664
661
317
335
334
333
333
333
388
449
510
582
632
656
661
662
663
664
665
665
664
664
664
665
665
665
664
665
664
665
665
665
665
665
665
665
665
665
665
665
665
665
664
663
662
661
653
664
658
652
658
659
656
652
640
613
604
575
542
497
433
407
385
366
342
328
312
296
293
279
251
245
224
210
341
144
211
194
190
199
188
198
216
212
221
219
194
169
166
158
167
173
170
173
181
199
204
186
187
190
201
235
290
198
213
220
231
230
243
262
277
270
276
272
253
224
233
247
242
255
261
264
260
281
286
281
286
288
263
583
241
306
316
317
323
348
353
371
387
391
392
373
312
334
337
349
357
353
349
377
354
337
340
342
345
365
458
321
345
336
369
330
381
372
383
396
401
384
356
319
328
371
331
324
352
350
348
365
355
346
338
354
323
597
278
356
362
357
352
368
374
387
387
411
392
398
332
339
333
337
347
353
336
354
356
359
355
354
348
354
421
370
361
360
371
360
365
378
359
358
339
327
251
207
183
154
136
132
112
114
116
121
116
114
116
126
118
344
75
160
160
167
180
182
203
215
234
230
228
209
197
186
194
206
220
232
245
239
228
251
226
220
225
225
200
440
152
253
251
266
284
311
342
384
442
483
546
588
606
630
658
662
664
665
664
665
663
665
665
664
664
663
662
577
664
460
450
416
380
348
329
323
325
305
312
299
264
241
240
246
246
255
279
296
331
377
433
465
481
506
552
545
663
625
589
577
572
567
568
546
499
445
388
344
284
222
180
150
139
132
123
119
117
135
125
125
127
136
115
406
71
188
212
249
280
331
369
408
446
471
494
481
474
501
516
536
543
547
541
536
545
528
510
483
438
383
348
470
272
257
225
204
168
135
116
77
47
16
0
0
0
0
0
0
0
86
169
243
314
376
440
489
506
554
592
616
660
664
660
643
630
630
615
609
600
595
569
551
508
453
412
374
352
316
289
259
231
217
206
182
154
130
114
116
87
313
74
111
113
126
138
152
179
199
218
225
228
199
192
195
195
203
214
220
217
242
249
229
232
230
232
204
476
171
226
231
232
241
248
255
276
288
284
281
251
238
245
258
256
276
278
283
300
321
320
318
326
342
329
659
320
436
475
517
563
617
658
662
663
664
664
664
663
663
663
663
662
662
662
661
655
637
626
597
575
551
537
498
655
495
480
466
457
441
441
434
427
431
426
410
384
349
330
314
310
316
306
299
282
277
292
277
266
268
255
253
273
367
260
257
263
263
268
271
281
298
296
296
282
254
243
244
249
241
257
251
263
266
265
279
290
280
274
275
279
271
486
259
286
290
298
299
308
321
336
335
343
341
309
296
292
295
307
302
311
315
315
318
327
326
335
342
332
333
336
343
336
511
329
349
347
361
366
367
385
398
399
408
398
369
341
347
347
352
355
367
356
363
367
369
366
369
378
396
375
376
380
373
379
527
361
378
378
388
387
397
404
416
422
421
414
385
365
354
354
355
360
349
356
354
362
381
330
360
343
332
299
595
232
319
305
312
321
339
331
343
354
350
350
320
289
304
279
295
265
276
272
272
292
268
259
271
249
249
231
513
200
258
253
254
278
285
299
324
337
344
343
327
320
310
329
348
357
365
370
396
359
379
388
388
360
638
291
395
391
396
391
392
415
417
415
420
409
383
355
336
346
336
340
341
337
343
341
353
353
334
337
352
321
390
334
341
341
336
345
347
349
365
382
375
377
367
345
312
312
318
312
307
309
319
340
316
308
315
314
291
558
270
305
313
317
326
326
340
353
365
358
359
328
310
300
303
305
319
330
333
319
319
314
317
334
441
305
324
333
338
342
352
365
376
377
378
371
346
322
325
319
322
331
354
327
325
318
312
295
581
211
313
302
314
316
325
328
345
344
344
342
312
289
284
287
285
291
304
317
302
297
292
300
283
585
233
307
317
308
321
335
342
355
373
375
358
331
315
306
310
312
314
324
319
320
337
345
325
319
329
329
309
570
297
327
338
342
345
354
364
383
391
379
383
357
338
326
328
333
343
342
334
344
348
344
367
351
341
340
347
318
635
248
342
345
349
354
354
362
374
378
379
374
365
324
319
313
315
318
316
321
324
343
321
306
306
311
288
522
202
317
298
299
315
312
326
339
347
350
347
331
293
295
294
298
304
308
309
316
320
340
324
323
329
322
324
622
255
338
352
343
346
359
373
377
390
392
382
358
341
328
325
326
330
340
335
343
359
342
334
339
338
317
590
242
333
333
337
338
340
362
372
379
390
388
362
332
330
323
321
332
334
328
351
351
327
336
330
330
409
338
331
334
340
344
350
360
367
379
383
380
360
339
321
317
317
317
324
319
320
350
325
313
320
310
287
599
221
311
319
325
314
334
337
346
361
358
357
333
315
292
299
305
298
313
304
316
332
322
317
316
321
295
535
219
326
320
329
328
328
343
361
368
368
368
350
309
310
309
302
312
315
312
317
314
319
319
337
316
321
315
315
323
469
305
320
326
333
335
339
347
361
370
361
363
332
318
311
309
311
319
322
325
318
337
345
328
319
332
330
316
553
296
330
338
340
344
358
359
376
377
386
369
358
324
320
324
325
329
334
329
336
332
344
354
333
329
337
334
350
424
331
325
341
342
343
346
355
364
374
375
362
329
321
303
306
321
320
325
323
320
345
340
326
327
328
319
435
284
331
340
347
344
344
357
373
386
384
391
371
340
328
324
334
323
327
334
330
339
341
327
330
318
316
364
344
316
322
328
332
329
345
359
364
359
368
355
323
313
307
312
307
318
318
320
347
329
322
330
317
322
340
471
301
326
331
339
328
343
364
368
381
385
365
332
321
311
308
313
319
320
326
318
345
339
321
328
327
320
435
282
337
329
335
334
350
351
368
372
372
383
356
329
315
312
321
316
323
318
315
320
334
336
321
318
319
325
331
425
314
320
321
336
331
343
345
363
369
370
354
331
309
307
314
314
314
325
326
320
337
351
325
320
322
339
328
503
316
330
342
350
354
361
384
381
401
401
382
367
340
341
333
345
344
341
360
364
346
342
343
350
320
587
283
338
340
337
350
343
341
368
352
364
345
316
297
279
285
286
285
277
289
287
266
260
255
244
292
344
243
292
266
272
293
292
301
319
304
313
294
267
246
237
225
232
209
228
247
232
222
219
219
245
235
388
253
272
266
295
294
319
338
356
360
398
361
351
329
332
340
340
356
353
358
393
363
363
386
365
359
618
290
395
374
394
403
395
413
435
442
446
437
405
388
371
373
374
378
381
375
389
378
391
372
384
399
377
377
379
364
439
380
366
373
365
374
385
382
391
407
401
407
388
353
341
331
334
330
335
335
327
329
334
333
330
325
318
307
303
347
355
297
303
304
296
308
313
323
351
339
342
324
289
285
275
273
284
292
268
269
316
288
307
284
274
277
285
267
589
240
298
312
307
321
326
356
363
377
376
380
359
326
332
329
340
340
344
352
365
379
362
358
356
366
353
595
335
369
378
382
373
398
399
409
415
421
404
368
352
353
342
351
367
356
352
358
369
356
353
350
353
318
626
288
345
346
346
352
357
363
368
388
371
360
337
330
295
287
293
298
294
286
292
319
311
303
300
305
308
354
348
312
324
325
334
342
356
358
376
377
379
365
339
323
318
319
322
335
322
335
361
336
332
338
334
314
622
253
340
344
347
346
362
369
371
381
385
379
344
318
316
315
306
317
323
310
335
338
314
311
319
316
375
350
319
316
327
332
328
347
350
358
365
364
348
310
300
305
297
303
311
310
307
320
312
324
333
329
324
331
326
302
622
258
338
334
346
344
353
366
386
382
394
385
350
338
327
317
326
331
333
335
335
346
357
340
344
345
344
326
568
294
338
344
354
353
358
377
385
387
397
378
355
333
327
321
314
324
317
326
339
339
320
314
327
327
361
385
317
329
331
336
344
341
362
374
382
377
357
329
316
300
310
307
310
306
310
301
318
322
304
299
312
299
280
612
214
308
310
317
306
325
337
357
368
360
364
338
330
295
309
324
313
329
329
337
330
338
339
345
351
350
336
332
332
327
383
388
341
344
348
345
360
369
382
400
402
400
384
355
336
323
331
332
332
341
334
332
337
333
338
365
345
336
332
335
314
587
245
329
337
343
343
344
354
364
381
379
373
352
327
315
313
315
316
308
319
319
321
313
319
323
342
323
312
319
328
310
583
286
336
338
340
346
351
370
392
380
393
394
359
332
325
330
323
327
335
337
337
339
355
342
331
330
326
303
573
230
330
331
332
336
346
351
363
373
369
359
351
310
302
297
300
298
302
300
298
318
308
292
296
299
292
398
278
301
301
311
308
315
329
335
346
367
350
334
319
295
294
302
307
304
311
312
313
322
325
321
318
327
291
528
234
322
319
324
329
340
356
368
382
381
397
364
338
327
324
327
326
330
330
344
345
364
352
352
350
356
333
627
272
363
346
362
358
358
368
379
391
388
381
352
331
318
316
313
312
320
306
310
327
326
304
308
302
291
366
320
300
307
308
314
317
327
337
347
350
356
335
310
294
292
290
298
300
301
308
313
313
320
330
329
320
318
329
304
607
278
331
347
336
351
361
375
383
408
398
401
374
340
343
345
340
346
350
350
344
371
362
346
347
350
337
407
339
342
342
341
352
339
347
351
366
368
358
350
310
297
300
294
303
304
303
302
315
311
326
321
307
314
316
295
620
240
318
316
325
328
335
345
353
363
375
352
341
303
295
303
304
312
315
316
324
322
328
342
320
318
320
326
374
387
322
319
344
342
334
353
380
377
381
378
368
341
325
319
311
325
324
315
326
326
340
340
328
324
330
328
359
384
324
318
331
334
343
339
362
373
379
370
360
329
311
312
306
311
314
316
321
318
325
329
342
324
325
320
325
334
470
315
325
334
340
338
352
361
371
382
376
367
339
320
316
309
322
316
324
324
326
325
343
342
336
335
323
325
361
410
330
335
334
342
341
346
361
376
380
380
369
334
331
328
328
334
344
345
328
339
351
337
331
332
338
318
495
263
349
349
362
360
364
376
380
386
387
384
364
325
321
314
311
317
328
333
350
349
339
313
316
316
288
601
220
316
322
324
321
334
339
351
358
352
352
321
300
297
284
291
294
305
292
296
317
329
285
297
305
290
511
213
316
323
318
324
333
333
357
366
363
366
338
322
307
301
312
310
319
321
323
325
331
345
331
323
320
328
297
586
219
322
324
332
339
335
351
364
375
372
373
352
322
313
319
315
329
324
319
322
323
321
329
342
331
328
326
329
305
623
269
338
339
342
341
351
359
380
379
376
375
343
319
321
312
311
332
319
328
332
338
350
363
341
332
337
337
315
621
264
346
364
364
378
374
381
390
397
401
402
375
347
332
329
336
326
331
326
322
340
325
303
305
301
271
484
223
282
281
290
287
303
305
321
341
352
343
335
283
275
277
266
261
267
278
281
295
297
281
279
291
259
575
196
301
306
315
332
335
351
363
375
382
396
356
340
335
335
338
340
348
351
360
369
372
357
364
363
332
657
274
359
359
359
365
386
380
398
424
407
405
380
360
357
358
356
362
360
369
360
375
360
353
352
351
350
568
322
348
359
358
345
358
363
372
367
365
347
308
288
274
272
272
276
278
275
286
282
274
282
281
269
557
202
300
309
318
327
329
348
365
378
382
379
361
338
333
329
340
339
348
367
372
361
356
364
368
400
427
360
376
381
385
389
400
408
422
419
419
405
384
360
357
344
347
355
337
358
351
329
329
319
302
452
234
315
315
313
329
324
333
349
354
362
353
339
316
298
297
309
317
319
326
324
336
337
330
331
328
332
435
307
351
343
348
353
364
365
386
398
408
403
388
364
342
341
346
360
342
353
360
361
365
384
370
359
363
356
339
508
272
359
360
356
365
358
377
373
389
382
391
348
335
303
291
257
273
264
256
255
248
224
216
234
252
232
511
191
284
266
278
301
294
314
334
335
351
335
329
287
281
271
284
288
292
280
301
301
312
266
286
290
273
522
248
296
305
311
323
332
342
357
364
373
368
339
317
329
312
323
321
326
342
344
351
331
334
341
322
583
260
358
356
365
369
382
395
399
411
410
402
386
363
358
356
359
350
371
360
366
387
362
360
356
355
336
650
292
360
360
366
372
375
389
400
413
405
404
384
367
361
355
369
358
369
356
376
371
346
340
354
347
328
585
287
340
332
347
350
357
375
385
389
395
392
367
351
347
345
349
336
335
337
327
338
334
318
314
312
302
415
265
301
300
305
305
311
317
329
340
342
347
330
301
290
290
294
294
300
303
306
311
330
323
315
316
317
295
548
224
328
329
334
338
345
353
367
375
377
381
357
331
328
329
328
334
334
338
329
331
326
319
317
330
321
315
307
310
299
420
267
310
320
336
363
327
305
355
371
371
387
384
359
339
340
348
325
326
333
323
328
326
331
321
319
316
319
307
568
284
317
307
332
321
337
344
348
378
360
353
320
310
312
293
305
307
301
305
306
324
313
305
316
307
286
587
249
316
315
319
315
322
349
344
364
363
364
333
306
309
307
309
311
319
317
331
322
340
324
336
332
274
360
302
308
312
315
318
329
335
351
364
366
366
357
325
313
307
310
309
318
320
352
310
325
300
308
290
294
582
256
323
328
334
346
352
376
375
386
399
392
364
333
335
337
341
343
367
368
360
344
349
344
324
575
257
346
341
345
351
349
359
377
358
368
368
340
324
315
311
315
319
314
320
335
324
314
312
308
298
517
281
314
324
337
348
340
360
372
372
373
363
333
316
311
309
307
305
303
320
323
306
309
304
307
339
402
300
311
315
319
324
331
339
346
349
351
334
304
290
286
286
289
290
294
298
302
304
308
318
337
325
323
321
328
342
496
317
343
348
355
348
350
357
367
365
365
360
338
321
312
309
316
312
313
314
319
316
316
314
333
328
311
313
309
292
394
272
317
319
320
330
335
337
359
357
371
368
364
333
323
315
312
309
311
320
309
319
321
346
319
302
308
304
279
566
222
298
307
299
309
315
326
342
349
357
354
336
318
310
309
316
319
327
336
343
356
340
341
341
342
352
496
319
352
358
362
365
376
389
400
401
403
393
363
347
337
334
337
333
329
328
326
343
337
320
321
323
303
557
220
330
329
333
339
345
352
371
375
377
376
360
334
326
324
326
330
331
327
336
354
336
323
322
322
297
584
227
327
344
297
366
309
341
359
357
380
361
336
324
325
313
314
326
309
316
328
323
325
320
354
336
322
332
329
349
416
321
330
329
336
358
354
359
385
377
385
376
349
342
327
326
348
332
331
332
349
357
334
332
341
325
371
397
308
335
333
336
348
357
365
371
368
369
356
335
321
309
316
326
310
312
318
347
320
306
314
317
282
516
214
320
314
320
319
318
330
332
341
337
340
313
286
279
278
273
279
282
276
283
295
295
271
282
273
265
291
425
256
276
289
293
301
297
326
319
323
336
324
310
280
282
291
293
284
302
312
303
313
333
337
333
323
328
331
313
621
260
344
361
353
368
378
389
405
422
419
429
387
371
372
357
376
360
373
375
370
391
367
359
369
370
354
651
298
376
378
380
383
391
402
417
409
416
410
390
363
358
357
358
377
353
356
366
372
365
362
379
372
354
386
420
319
327
325
305
325
317
346
344
372
364
353
361
324
338
325
322
317
317
310
330
337
328
321
319
323
313
621
261
337
332
327
335
347
337
346
354
360
349
322
317
297
296
308
294
290
305
309
299
307
312
321
308
298
305
281
399
263
299
303
306
304
311
321
329
344
346
345
334
315
289
298
285
290
300
308
293
301
301
314
335
314
302
309
312
293
602
236
321
337
333
329
349
353
366
379
379
379
359
332
328
318
330
321
335
330
326
344
357
328
326
331
334
321
573
255
331
334
334
338
354
365
367
369
369
360
341
313
308
307
309
304
308
307
305
321
314
299
305
299
292
391
266
311
303
311
310
314
320
338
345
355
354
341
317
307
308
302
313
327
322
324
321
330
325
336
353
340
332
336
340
355
480
318
345
357
361
371
380
391
403
413
414
407
389
363
361
366
355
357
365
355
367
383
362
360
356
352
331
600
239
367
347
356
354
359
371
375
379
377
380
353
335
318
315
306
314
319
324
317
310
325
327
298
309
310
286
488
209
316
316
315
312
325
322
335
352
352
349
333
304
305
296
299
306
305
306
318
307
309
325
324
321
308
312
320
298
594
262
321
305
328
331
344
341
362
365
375
364
338
315
315
312
326
313
323
321
318
328
323
333
343
332
330
334
332
317
582
241
354
340
342
355
354
350
370
386
379
382
379
362
352
340
340
320
316
308
308
317
309
297
278
297
277
344
309
286
294
302
290
298
328
307
329
331
328
322
300
280
278
294
283
294
292
300
299
297
305
309
329
309
303
302
311
295
580
210
325
333
331
333
347
363
371
381
381
392
369
346
332
330
340
336
350
351
350
357
363
358
375
386
379
366
371
369
349
617
262
388
383
389
399
410
418
428
429
442
434
419
391
374
370
361
368
360
366
359
368
377
355
349
344
353
323
628
259
334
334
331
332
334
342
355
357
357
361
325
306
297
296
295
295
304
295
294
295
297
306
323
318
309
304
302
269
587
194
301
305
306
309
323
329
338
347
347
352
333
304
300
299
296
305
308
307
309
312
311
314
320
332
329
316
313
316
289
565
198
320
314
320
312
321
330
341
345
352
351
335
308
296
296
308
305
306
311
313
332
333
338
349
362
348
346
343
345
359
462
335
358
351
368
369
369
383
394
386
393
384
361
333
325
325
325
320
324
323
318
329
319
329
337
324
309
316
309
332
427
302
309
311
323
323
328
333
343
356
352
342
311
290
289
298
295
293
304
306
293
303
322
307
306
306
312
306
459
232
318
315
334
338
353
373
378
392
395
385
356
334
324
310
312
324
325
333
336
359
345
330
325
328
309
451
232
308
292
298
295
296
311
340
338
348
344
332
315
300
296
306
299
308
311
315
319
333
325
318
321
322
307
482
253
335
325
330
332
344
358
364
377
377
380
371
320
325
323
320
325
331
329
331
324
330
335
324
327
338
331
341
370
352
328
328
333
315
590
243
331
331
334
339
342
347
365
375
358
361
347
319
299
292
290
297
301
302
306
299
299
306
328
304
293
289
286
293
376
291
307
315
320
342
346
355
371
383
381
372
365
335
323
324
325
330
338
327
336
324
335
348
330
317
319
322
307
562
279
320
333
339
343
345
364
376
379
382
372
342
317
318
323
318
324
332
332
332
338
335
344
360
339
337
342
333
324
622
295
344
352
367
354
369
395
394
397
403
406
378
341
342
341
340
343
349
344
349
346
346
356
365
378
349
360
361
367
400
431
373
377
390
390
394
404
413
427
437
431
432
412
386
370
369
371
354
357
363
351
377
371
351
343
338
331
348
452
300
314
320
318
311
316
327
335
331
346
327
294
281
270
273
271
279
278
280
282
292
287
271
275
275
262
411
213
286
276
291
285
299
308
318
327
334
337
322
294
280
276
282
289
290
294
294
292
296
314
316
306
304
307
303
377
327
308
313
324
314
323
343
357
366
377
374
367
332
320
317
320
323
333
330
327
328
340
344
326
329
335
334
337
466
301
336
333
338
340
340
366
369
375
374
373
343
330
316
311
319
316
310
313
317
327
317
304
303
304
285
569
200
310
299
309
299
310
326
339
341
342
344
316
293
283
283
280
289
291
293
295
296
299
319
313
295
310
310
289
583
218
329
314
325
330
347
353
363
374
378
378
349
328
325
320
324
329
325
334
331
335
337
336
344
365
359
348
352
359
343
614
314
369
374
368
378
395
395
399
414
419
408
390
367
362
353
354
360
354
365
372
378
362
357
352
352
330
636
264
348
356
357
359
363
372
378
384
381
372
349
326
317
311
312
318
316
318
319
333
312
305
299
303
295
505
255
295
295
299
304
302
320
330
327
314
276
227
202
189
201
207
220
232
236
266
264
253
266
262
266
312
368
283
299
298
302
307
318
333
352
358
358
349
326
314
313
312
328
324
335
337
349
349
326
333
342
331
463
292
345
346
350
349
351
366
363
380
392
394
372
345
319
326
326
336
333
350
328
333
355
349
339
340
326
336
343
502
305
343
338
340
358
343
366
372
379
387
371
354
323
331
316
324
322
333
354
345
330
338
322
326
326
569
262
335
337
340
342
350
345
366
349
358
346
328
308
294
285
284
288
278
298
286
268
270
260
253
428
180
268
271
274
287
290
299
314
322
332
331
310
286
283
287
282
294
304
299
298
304
325
342
312
322
326
332
325
566
298
341
346
347
352
362
381
389
392
400
391
362
341
336
333
337
343
339
346
347
344
346
356
361
357
344
350
344
337
464
292
346
338
350
345
355
358
369
382
386
383
368
344
328
326
325
328
337
335
332
336
337
345
360
338
327
329
326
332
503
306
322
325
331
330
341
354
355
360
363
356
336
310
298
297
308
303
309
310
316
332
334
315
314
319
302
494
243
330
331
333
338
343
354
368
380
389
388
366
344
328
327
335
343
340
354
371
361
346
344
346
333
624
267
345
348
351
357
362
369
384
394
397
384
354
336
332
327
331
334
334
335
356
349
333
332
333
322
494
247
344
333
340
342
348
355
370
374
377
377
353
329
313
315
321
317
315
316
320
322
328
337
321
319
319
320
328
492
303
319
324
330
346
341
355
367
371
373
359
338
319
308
308
309
311
312
316
318
317
317
319
331
343
327
322
324
325
303
528
231
333
331
328
329
339
347
354
360
363
361
350
328
309
304
306
308
311
315
311
313
311
320
333
316
307
303
304
312
482
285
308
315
312
317
331
339
351
352
357
348
315
301
293
294
305
308
305
310
312
317
337
324
318
313
318
299
582
227
329
337
327
347
343
352
373
382
382
383
352
330
324
316
323
323
326
326
330
321
341
342
319
324
325
318
406
294
323
325
329
340
332
349
360
368
372
373
357
330
320
308
307
320
322
320
328
322
328
326
335
353
341
330
334
338
313
576
239
345
341
345
347
354
361
376
379
387
383
359
335
319
316
319
325
322
325
328
321
326
323
330
318
326
342
328
324
322
315
300
482
231
318
308
311
316
318
325
339
350
350
349
334
306
292
290
290
291
299
299
294
299
301
306
301
304
312
303
308
315
313
324
340
330
321
323
327
309
574
275
324
332
334
336
348
358
364
376
383
377
359
333
320
322
326
328
328
335
332
332
336
335
342
338
337
344
348
350
352
362
376
362
357
356
355
423
358
357
359
368
363
370
379
384
392
390
390
375
349
327
319
312
311
310
309
304
304
294
296
290
291
285
284
283
302
289
277
279
276
247
525
183
282
279
283
287
297
306
316
333
336
342
330
308
292
295
300
306
305
314
319
318
328
326
332
343
360
343
344
344
352
381
423
344
363
366
373
370
379
388
400
401
399
388
367
343
328
328
328
333
331
331
333
332
329
349
340
327
325
321
317
443
276
328
323
333
332
345
346
360
371
374
374
362
333
315
316
315
316
322
326
332
335
332
338
355
356
337
342
342
335
492
268
350
345
348
352
354
365
376
385
386
389
372
343
321
316
313
315
318
321
321
320
329
339
316
313
311
315
312
512
270
317
319
321
322
331
342
350
357
355
349
325
304
297
299
303
307
306
309
309
312
325
327
314
311
312
310
390
311
317
316
322
326
329
337
349
359
367
368
359
328
312
307
308
313
314
316
320
318
318
323
332
345
328
319
322
323
305
601
257
326
330
332
337
341
354
356
363
362
358
331
302
300
293
312
315
315
311
330
323
320
322
316
363
337
323
349
358
341
627
294
361
365
375
375
367
378
377
387
388
385
362
345
311
325
307
305
312
311
310
321
310
318
309
309
303
310
297
533
252
318
327
318
330
348
351
371
377
373
382
369
346
324
327
347
334
362
358
371
378
380
356
352
372
350
597
265
375
366
372
377
382
382
386
394
396
399
383
364
351
343
345
346
345
351
365
354
340
342
336
325
608
253
337
340
334
338
345
348
355
354
350
341
310
289
282
279
272
263
265
294
277
262
277
266
288
327
351
292
292
311
294
307
321
332
340
346
344
333
307
286
276
267
263
265
278
286
266
270
269
277
335
320
286
288
300
304
310
319
333
344
345
346
341
310
295
301
300
306
316
333
349
326
324
325
327
313
582
263
332
333
335
343
350
355
366
373
371
368
348
332
321
325
330
328
329
344
351
345
334
337
330
322
494
255
342
344
347
346
356
369
373
385
389
380
373
352
332
334
338
339
346
344
353
363
353
349
345
350
330
522
258
355
351
360
357
365
371
381
389
387
388
376
348
333
335
332
333
332
338
356
341
323
319
325
301
481
233
323
317
322
326
325
329
341
344
350
344
324
304
293
290
287
294
294
296
312
316
296
299
293
294
338
370
284
299
305
310
308
320
336
341
347
347
337
309
301
297
301
298
302
304
304
323
327
312
310
310
310
311
513
287
311
319
326
327
333
347
356
360
366
357
330
311
307
309
309
318
321
322
319
321
327
337
336
322
322
324
320
383
341
324
327
329
333
338
349
361
368
370
373
366
342
320
317
319
321
324
324
322
326
334
349
327
327
322
325
313
590
252
332
334
334
340
348
352
363
368
370
362
344
321
310
310
314
311
314
314
318
330
324
309
307
308
300
417
263
308
308
317
318
323
334
345
355
359
359
341
315
303
302
303
308
307
312
313
321
335
315
311
316
315
304
546
271
309
316
317
317
327
335
344
353
352
343
317
295
284
284
286
288
287
288
287
294
314
302
295
288
295
272
536
209
304
296
303
312
310
325
338
362
352
349
343
318
301
308
311
318
325
340
344
372
353
342
350
353
335
598
262
363
367
373
373
382
391
398
408
411
403
383
361
355
349
356
348
355
355
351
364
366
350
342
346
348
381
412
338
349
343
348
353
364
366
383
382
384
372
344
331
319
323
324
323
330
325
332
345
337
327
331
328
315
513
240
334
329
336
340
352
354
367
378
380
378
358
329
323
323
322
323
331
330
326
334
338
348
328
322
329
333
338
493
303
335
340
343
345
353
364
373
375
376
364
339
309
298
291
291
290
289
293
306
290
280
276
278
256
543
179
291
287
293
298
301
312
325
333
335
331
310
287
281
281
283
289
291
297
312
318
303
299
298
303
308
490
277
301
306
304
303
307
317
335
333
339
328
299
282
278
277
279
279
278
275
274
280
289
267
259
257
256
235
541
177
254
256
263
268
278
291
308
324
331
329
309
289
284
287
291
297
300
303
304
315
330
344
330
324
329
335
326
526
266
364
368
375
379
390
400
413
424
427
428
411
385
376
372
378
376
379
380
376
383
394
388
371
365
367
365
432
389
359
365
368
356
290
301
320
358
372
378
366
347
341
348
354
360
364
363
363
362
374
387
373
357
356
354
333
543
256
351
341
344
331
333
338
334
346
338
339
326
288
276
281
292
301
315
323
341
348
347
357
366
387
371
368
373
373
359
657
298
378
378
377
384
384
390
398
412
413
409
389
360
348
347
345
338
333
331
326
322
317
325
330
321
306
305
302
288
449
216
296
284
283
280
281
284
291
295
300
297
281
252
234
231
229
232
234
232
209
193
175
188
161
161
172
188
195
412
187
232
240
253
266
284
305
329
344
352
357
341
329
329
338
349
363
370
376
388
408
390
385
386
389
378
641
337
395
401
403
408
417
426
437
447
446
432
403
383
377
375
377
378
378
384
398
385
371
372
371
351
632
273
372
369
370
372
370
372
384
390
390
384
355
330
319
322
330
334
336
337
340
366
360
342
342
341
332
446
292
338
337
343
348
352
360
369
376
374
372
352
318
299
299
319
324
332
330
334
350
346
335
323
311
295
395
254
283
284
288
298
310
331
350
362
373
371
357
326
314
305
306
305
309
308
328
326
318
322
326
311
552
239
339
340
346
347
351
359
364
372
373
373
355
331
325
322
323
325
321
325
344
331
315
313
315
293
541
195
308
303
308
313
320
331
344
355
360
358
337
311
305
305
310
316
319
327
345
334
318
314
315
298
493
214
316
311
315
318
321
325
333
340
345
344
322
296
285
286
287
289
291
296
297
297
307
317
307
293
290
290
275
464
205
300
299
304
309
315
324
336
347
354
355
340
314
301
297
299
301
301
301
299
300
307
318
302
289
286
286
266
504
187
292
290
294
300
308
319
334
345
351
353
338
312
299
300
301
299
299
298
290
284
283
288
276
282
291
302
327
409
301
325
332
331
338
349
360
376
386
392
391
378
364
364
370
379
386
393
393
398
417
402
386
381
379
357
582
271
379
376
380
383
384
393
405
414
415
409
387
360
349
343
341
342
342
341
345
365
352
338
338
339
320
550
245
346
343
346
348
353
362
372
377
380
376
350
325
309
315
314
317
320
323
328
349
338
320
319
318
300
487
231
315
311
314
318
322
331
343
352
352
350
332
305
294
293
296
299
300
301
306
324
311
298
301
303
284
570
213
312
315
319
323
328
339
352
360
364
360
337
313
306
306
309
311
312
327
339
320
314
314
316
322
484
296
321
325
329
333
340
351
362
367
367
356
330
317
314
315
315
318
323
340
326
316
312
312
293
566
221
313
316
318
324
327
335
347
347
350
343
320
301
292
256
258
285
295
320
308
274
268
266
257
356
219
264
267
270
273
276
286
296
305
311
310
299
281
275
279
283
290
300
303
317
335
312
305
307
307
293
596
244
330
335
343
349
358
370
386
398
406
403
380
363
358
360
365
369
371
374
382
402
386
373
370
371
352
552
260
361
354
354
351
357
366
378
389
393
397
379
357
350
352
356
358
359
361
363
361
367
377
377
357
353
354
344
444
306
352
351
353
353
359
369
383
392
395
393
380
353
334
326
325
324
323
323
322
321
322
322
322
327
338
348
326
322
324
324
353
418
301
288
266
260
257
265
282
298
307
314
318
304
288
294
305
312
320
329
331
339
339
343
349
360
361
343
338
