341
347
359
372
380
379
373
346
322
311
314
319
318
320
323
327
346
335
322
320
321
300
577
220
323
321
324
329
334
343
356
363
362
354
329
308
301
299
299
299
302
302
302
311
321
309
302
303
306
301
559
266
308
312
318
317
330
349
349
361
365
350
323
306
303
307
326
286
308
281
303
310
326
338
333
325
330
335
325
603
298
340
414
409
287
322
364
391
406
400
406
366
312
368
310
331
336
342
336
357
343
360
349
328
361
347
453
292
368
355
325
349
362
342
354
383
398
346
358
320
297
309
323
316
328
319
337
341
295
300
290
289
292
555
270
320
317
338
345
361
365
376
382
375
350
325
319
309
308
311
313
314
327
338
332
314
326
314
296
605
246
315
330
322
341
335
351
381
376
387
380
329
312
322
297
308
308
320
301
320
336
298
297
305
288
261
588
216
292
297
303
303
315
326
336
342
349
333
300
283
279
281
286
290
298
304
310
322
343
340
331
339
345
335
553
270
368
372
375
383
390
400
413
419
422
418
389
365
354
347
349
348
348
345
347
364
346
330
326
326
301
529
214
315
307
308
307
304
316
323
328
327
316
289
265
255
253
252
250
247
245
242
253
265
251
247
251
254
247
512
217
264
271
274
279
288
302
317
328
334
325
300
285
279
283
286
283
289
287
291
291
304
321
306
300
303
306
291
592
215
317
319
324
330
336
345
362
376
384
376
358
338
333
331
336
338
344
343
348
365
350
341
341
344
325
605
250
354
355
356
359
363
370
380
383
386
379
350
334
326
326
331
333
337
337
338
336
350
349
331
326
326
322
406
324
324
322
325
327
332
336
344
352
358
355
329
322
287
290
286
281
280
280
284
288
300
316
314
303
310
315
306
482
248
336
340
349
357
368
377
389
396
401
395
368
342
328
326
326
328
327
325
324
319
322
332
313
301
304
302
281
570
208
308
312
326
330
341
348
363
367
370
365
347
329
324
324
329
326
330
331
331
342
359
349
354
335
334
336
620
260
318
351
378
367
358
406
428
427
442
423
413
395
394
393
400
401
411
415
430
446
410
410
404
397
599
334
456
446
434
428
444
423
438
414
417
398
382
335
316
301
312
310
294
290
292
293
289
270
278
275
268
402
198
278
269
273
273
280
287
300
305
317
324
286
268
261
256
262
256
268
268
270
284
282
274
262
271
244
530
172
263
267
281
269
278
286
303
313
315
311
287
267
266
270
280
279
288
292
297
310
319
302
303
309
306
336
401
306
316
323
333
336
347
358
371
379
378
366
341
329
330
332
338
341
346
346
339
355
362
356
338
344
341
328
530
250
342
342
344
345
350
361
366
382
383
378
364
346
327
323
327
323
323
326
332
349
314
307
310
310
298
482
260
298
312
305
311
316
333
334
346
346
331
310
301
296
298
302
306
304
307
327
333
325
322
317
326
328
516
299
334
327
335
346
351
363
373
381
374
353
327
310
309
302
308
313
310
309
307
310
319
320
296
295
298
282
351
301
293
284
291
305
309
309
326
334
337
341
321
297
292
291
288
298
303
297
302
302
306
308
316
328
320
313
313
315
311
468
246
340
330
334
339
336
344
355
358
366
360
348
320
315
320
322
326
336
335
334
338
352
354
327
330
335
330
351
495
314
348
351
358
359
369
385
387
388
383
369
338
322
319
309
314
312
316
318
317
317
337
319
304
302
299
280
578
206
308
310
313
329
336
348
365
388
364
331
313
294
294
295
302
307
316
323
327
330
317
310
326
311
307
306
319
312
625
283
376
393
409
426
442
458
477
494
499
496
472
451
445
445
451
455
453
451
446
441
434
426
424
424
437
412
399
400
396
384
632
331
377
374
371
374
366
369
375
374
367
353
323
294
282
279
278
281
282
286
287
292
306
312
292
294
294
280
470
221
298
290
294
304
307
314
331
340
336
337
306
280
270
265
267
265
270
272
269
262
268
281
265
253
258
252
245
510
221
258
266
271
288
295
320
332
374
365
371
348
338
336
334
340
345
344
355
351
358
375
367
357
360
364
348
653
310
372
374
375
378
385
393
406
412
414
401
371
345
337
333
334
333
329
325
327
337
328
316
314
315
288
577
231
301
298
297
298
304
311
327
333
336
329
300
283
272
275
278
279
280
282
286
300
293
284
285
287
271
549
209
305
310
319
325
329
341
352
362
364
360
333
306
298
296
294
296
299
300
311
319
301
308
316
327
369
423
338
346
356
363
372
378
392
402
405
404
377
342
335
330
334
336
338
339
343
354
354
339
336
349
327
583
263
354
352
357
353
367
377
391
400
395
399
370
339
345
342
345
342
340
339
334
344
341
313
309
302
292
387
258
296
288
289
292
300
309
327
341
348
347
327
304
300
299
306
315
323
324
326
340
353
338
335
338
338
358
443
331
339
344
347
351
357
369
380
384
381
362
336
318
315
313
315
316
314
316
319
328
337
320
317
323
319
374
385
326
325
323
328
332
336
348
352
354
346
325
295
275
275
282
295
303
313
332
336
312
305
302
299
296
448
257
281
280
279
284
298
313
331
326
316
301
273
272
274
281
289
295
300
309
328
315
313
315
318
311
586
292
340
350
354
357
361
374
389
396
397
379
345
326
319
312
307
303
302
301
301
312
319
308
310
316
317
388
358
335
339
347
352
359
367
384
395
398
398
380
344
323
311
305
306
305
307
312
326
338
330
324
323
327
307
607
251
324
326
325
330
331
342
349
354
357
348
324
302
295
293
301
298
303
310
324
336
317
322
332
354
375
581
373
401
414
418
423
434
444
452
460
445
418
384
364
356
346
346
345
345
348
355
351
365
368
366
336
320
302
266
562
214
284
273
263
257
296
210
238
240
237
233
214
186
201
193
224
216
235
230
259
241
317
231
267
283
244
243
262
256
530
239
295
316
329
348
358
386
406
413
417
408
377
356
348
345
353
355
353
362
372
376
365
359
361
367
344
643
287
376
359
357
362
354
368
367
368
352
334
290
266
242
238
234
229
213
194
204
236
234
234
256
263
252
560
243
297
314
309
309
312
321
328
331
322
305
276
267
260
268
281
278
287
298
306
330
315
314
317
324
321
538
310
329
346
355
360
381
389
401
402
404
380
355
347
349
342
356
353
358
363
369
395
414
430
448
478
492
476
661
447
513
520
521
515
510
505
508
494
488
463
430
385
385
383
367
351
347
334
304
286
268
260
267
245
232
239
225
297
269
245
230
239
254
255
261
272
289
302
300
286
274
280
287
289
291
305
313
309
321
318
320
347
347
336
348
363
350
649
334
382
392
381
384
385
396
402
413
403
396
374
329
335
333
339
347
361
363
361
364
375
366
354
354
349
332
568
278
350
349
352
357
355
357
368
374
380
375
336
321
315
312
316
311
319
313
308
309
309
315
300
303
311
281
505
236
286
272
273
272
285
311
334
343
345
340
315
287
287
288
288
289
292
293
291
280
275
274
278
262
247
247
240
245
416
230
241
251
255
264
278
297
308
332
335
330
340
277
295
305
318
316
308
316
327
321
351
340
327
326
331
331
345
488
320
344
352
349
363
379
393
411
420
418
406
380
363
352
359
364
360
369
374
384
385
363
356
344
341
339
552
303
379
326
338
357
377
349
341
321
313
290
245
234
219
220
227
221
229
224
228
234
233
220
218
224
228
246
396
243
263
268
269
266
271
281
291
301
304
289
267
251
254
261
274
290
303
315
343
355
360
376
393
405
402
624
385
417
416
421
425
431
436
446
436
422
403
380
365
365
370
373
374
373
370
341
347
328
362
354
362
362
338
449
291
330
326
329
344
364
363
370
362
367
366
347
308
299
309
305
290
295
303
302
300
300
301
303
320
308
297
305
313
278
568
260
327
325
344
356
362
381
405
430
439
443
422
397
398
395
398
400
407
402
397
393
392
388
386
386
384
383
385
396
377
362
356
357
328
614
292
322
322
321
317
319
329
340
348
346
340
307
283
268
267
269
269
270
272
266
274
274
278
277
293
296
282
284
285
277
415
247
301
301
310
315
329
346
362
378
384
385
367
342
330
326
327
329
332
333
334
335
334
341
349
354
341
339
339
327
485
275
329
327
331
333
336
343
355
365
367
360
336
308
297
294
297
300
299
304
307
306
304
304
306
312
330
313
309
311
309
319
464
293
307
311
315
320
325
337
348
355
358
349
319
301
299
302
305
310
312
313
315
316
317
317
316
319
322
339
323
317
321
321
332
461
309
321
324
330
336
343
356
370
378
381
370
340
320
313
314
316
316
316
320
317
317
318
316
322
338
317
311
313
308
348
366
302
310
316
318
321
330
343
357
361
361
347
318
298
295
294
297
303
307
310
314
317
326
341
325
322
324
327
344
454
315
330
334
338
343
352
363
378
386
386
371
341
324
321
322
324
328
328
329
330
329
328
329
337
352
339
327
326
326
307
612
260
325
328
332
339
343
354
367
377
379
375
349
322
315
316
315
318
319
319
320
320
321
322
323
330
345
327
326
326
328
352
436
319
326
330
335
339
347
360
373
380
378
366
337
317
314
316
317
319
320
322
322
321
323
325
324
330
346
333
325
324
326
312
587
270
325
324
328
334
340
351
361
371
373
370
344
316
307
302
307
307
313
313
315
312
324
342
321
314
316
319
304
588
261
322
327
329
334
342
354
367
375
377
369
343
321
315
315
318
322
323
326
326
328
334
352
336
327
331
332
327
559
299
333
334
337
342
348
357
371
378
378
365
334
313
305
305
309
311
311
312
312
313
317
328
327
313
313
315
300
476
250
316
315
320
324
327
336
349
361
365
365
341
313
302
302
304
308
310
310
312
313
313
316
323
334
318
316
317
315
353
390
310
311
317
318
325
331
344
356
362
365
350
318
299
296
293
297
297
302
299
300
304
311
323
302
296
296
302
307
464
275
307
310
314
320
328
343
358
364
370
360
335
317
312
315
322
326
331
332
334
345
358
343
340
342
344
348
549
319
347
351
355
359
366
380
392
399
397
386
354
334
331
329
332
335
336
335
335
335
342
357
341
334
335
336
322
592
294
332
337
340
344
351
361
376
382
384
374
343
321
314
313
313
316
318
318
319
321
321
320
328
343
330
320
322
325
307
611
278
331
341
345
351
358
369
384
392
397
391
362
335
326
324
328
331
332
331
332
333
331
332
338
355
341
329
330
332
309
607
249
324
325
328
327
332
339
347
350
349
342
318
284
272
266
270
272
276
277
280
285
305
294
290
297
303
281
577
220
305
311
318
322
335
345
364
377
386
387
362
340
333
327
325
320
319
319
316
325
340
335
326
326
329
308
601
243
324
322
324
329
335
341
354
363
368
361
333
310
305
305
307
313
316
320
320
320
319
320
325
339
322
313
312
312
296
576
270
309
313
317
318
325
332
346
355
354
347
322
296
285
287
287
289
288
291
289
291
291
292
296
313
299
296
294
294
288
514
257
295
298
302
310
316
326
338
347
349
342
319
295
288
290
292
297
302
305
309
312
321
342
326
323
329
332
327
581
297
345
351
357
363
371
385
399
412
413
404
376
354
351
351
352
353
354
354
351
348
352
364
357
347
349
351
330
632
281
344
346
349
355
361
371
383
389
391
380
349
324
314
313
314
317
319
319
318
319
318
325
339
328
318
319
321
299
582
242
319
321
324
328
335
344
358
366
368
364
337
309
293
291
292
293
293
296
293
294
300
318
304
292
294
297
273
561
209
300
302
305
310
313
322
333
346
346
343
318
293
283
278
282
286
289
292
297
313
306
302
305
311
293
596
236
333
338
345
351
361
373
391
401
404
401
374
350
345
343
346
347
349
347
346
347
356
364
351
345
348
351
350
568
321
351
354
358
360
362
373
384
387
389
377
345
322
315
309
308
306
305
303
302
303
312
330
331
323
323
327
312
466
271
327
326
330
334
340
350
366
377
383
382
362
329
313
311
307
312
313
312
312
312
310
314
329
305
296
296
299
284
547
235
290
287
293
294
299
308
324
328
332
323
300
275
267
268
274
276
282
285
287
316
310
301
306
312
312
445
282
337
336
343
342
345
350
360
372
381
379
361
338
326
325
327
333
338
342
344
352
364
343
336
336
336
326
583
292
335
341
349
353
360
368
379
382
382
367
337
319
312
315
316
320
321
325
325
329
339
362
348
344
345
344
324
632
284
345
348
353
360
368
379
388
399
397
390
361
336
321
315
322
323
326
326
326
326
332
347
345
329
329
331
315
438
274
321
318
316
321
324
327
336
346
350
347
331
303
289
290
288
296
296
303
303
314
336
320
318
319
323
301
584
229
330
327
332
331
336
344
356
365
365
361
333
308
302
302
305
313
317
323
325
338
348
335
333
335
338
336
562
305
341
345
348
350
359
369
384
388
391
377
347
326
319
319
320
321
320
321
322
322
323
331
347
333
323
325
324
303
611
256
317
317
323
327
334
342
357
364
363
358
331
306
300
300
301
309
309
310
310
306
309
315
324
305
306
309
309
327
422
295
306
310
313
326
330
346
359
365
366
354
319
298
297
292
290
294
297
297
304
314
312
296
298
298
299
368
318
308
315
320
327
337
345
359
370
379
381
363
337
321
318
318
322
324
328
328
334
352
338
327
328
331
312
545
240
337
335
342
347
352
362
374
384
387
383
358
336
324
324
323
328
328
332
335
335
339
350
349
336
338
336
335
406
355
335
334
336
339
343
349
361
372
378
377
360
325
308
305
307
308
313
313
314
316
317
323
338
320
309
311
313
291
582
224
311
308
309
313
314
324
339
344
347
344
319
290
277
277
278
277
281
278
279
292
305
285
284
287
286
283
528
243
298
302
305
314
322
335
350
360
360
353
324
304
300
300
305
304
307
309
314
329
330
323
323
330
321
482
273
345
341
347
352
357
369
382
394
397
397
374
343
330
327
328
333
334
337
336
337
337
339
342
356
351
337
335
337
323
496
267
340
336
342
344
349
357
368
379
381
381
364
333
318
313
314
318
320
322
321
320
320
321
322
323
327
332
344
323
322
324
320
392
342
321
322
323
325
324
332
343
356
362
361
352
320
304
299
304
305
304
304
302
299
306
324
299
292
296
296
276
565
222
296
299
307
309
319
330
347
358
360
354
332
309
306
306
310
314
321
327
332
345
360
348
347
349
346
340
587
314
351
358
362
362
367
377
384
389
386
377
352
338
340
349
352
357
356
355
352
353
359
358
337
325
320
318
385
355
313
312
317
320
323
327
340
353
354
346
325
309
314
318
316
312
310
313
313
299
291
290
304
298
291
293
295
272
421
223
273
268
269
272
278
289
305
322
327
329
310
274
254
249
242
246
245
246
247
255
266
280
265
267
270
277
275
497
250
298
305
317
329
343
359
376
390
398
395
370
351
352
357
362
367
370
373
372
383
391
376
370
371
371
362
609
331
361
365
364
367
372
379
392
398
399
386
354
333
327
327
331
333
332
334
331
332
328
332
342
328
315
316
316
298
501
246
319
317
323
326
331
340
351
363
367
366
343
312
299
294
296
299
301
302
302
302
300
301
307
322
307
296
299
297
273
585
216
294
297
299
304
310
319
332
340
342
337
317
283
276
275
275
284
284
285
290
291
300
318
296
294
298
302
302
526
270
311
317
325
330
339
351
366
376
378
372
344
322
317
322
321
326
330
333
336
339
338
348
355
338
337
340
337
381
405
334
338
342
345
350
358
368
382
386
388
374
341
323
319
318
320
324
324
325
326
325
327
326
334
350
339
329
328
330
309
559
246
328
326
331
335
338
348
363
372
376
375
355
325
315
310
315
314
319
319
319
319
315
316
316
320
339
321
317
311
314
298
592
248
311
314
318
315
324
333
343
353
357
348
327
301
291
285
290
292
294
295
296
307
322
310
302
303
304
286
517
219
321
323
325
331
342
353
367
379
382
384
365
336
324
322
325
328
332
337
335
351
356
340
340
340
338
372
447
330
339
345
350
356
363
373
388
393
394
378
345
327
322
321
323
322
325
325
322
324
336
339
325
322
322
320
374
371
316
317
321
324
328
335
349
362
369
371
355
322
308
301
302
305
307
307
305
309
307
321
320
302
304
304
300
357
333
299
301
301
305
311
317
331
340
344
348
334
302
282
281
279
281
288
292
294
305
311
296
297
299
302
307
510
275
316
322
328
335
348
360
374
382
384
377
350
333
330
336
339
343
350
350
353
368
364
353
356
357
350
467
327
359
359
365
369
371
380
395
406
411
410
387
356
340
337
338
339
341
342
344
344
345
343
341
343
344
355
355
341
339
340
332
434
321
335
331
334
336
338
344
353
364
370
368
355
320
303
302
302
306
307
307
306
306
306
309
315
329
307
307
305
305
291
561
252
303
310
309
311
315
327
338
349
349
343
312
290
283
279
282
281
289
288
289
298
317
301
291
295
297
275
564
205
311
309
313
317
318
325
338
350
354
353
329
309
299
299
302
309
312
316
321
340
341
332
334
341
339
424
350
348
350
357
360
367
379
389
401
405
405
384
355
344
340
339
341
343
345
345
346
346
349
352
368
354
345
343
346
316
636
254
331
326
324
325
332
342
355
364
367
361
337
309
294
293
296
296
297
298
301
302
312
321
302
297
300
303
297
568
249
311
315
322
327
332
345
358
366
371
362
335
314
307
308
311
318
321
323
323
336
350
336
332
335
337
319
632
271
338
342
347
349
356
369
383
393
393
385
355
329
320
317
321
323
326
326
327
328
328
329
333
347
333
321
323
322
302
614
249
324
323
324
326
331
341
353
364
367
365
339
308
300
296
298
299
301
302
304
304
306
305
315
327
310
303
302
304
302
494
268
296
303
308
308
316
326
336
343
348
342
311
291
282
284
284
288
293
294
301
307
316
319
304
303
306
308
361
351
308
320
325
331
335
346
359
371
377
379
365
336
318
315
317
322
326
329
331
335
352
347
337
334
339
332
444
304
343
339
343
346
350
359
371
383
389
388
366
333
318
311
310
312
315
317
319
318
318
320
323
322
322
322
324
330
349
334
325
327
328
314
610
275
328
331
336
337
342
351
363
373
377
373
351
321
311
308
311
314
318
319
321
322
320
322
322
322
321
326
346
330
319
321
320
297
591
229
319
316
318
320
326
337
348
355
360
360
338
305
295
286
288
290
292
298
295
295
292
298
305
310
292
292
294
292
354
339
307
318
331
335
344
355
367
386
390
395
380
348
329
324
323
326
327
330
331
331
334
345
346
330
329
333
325
441
297
335
333
336
338
343
353
364
379
384
383
365
331
314
311
312
314
316
317
320
320
323
322
325
327
334
343
327
322
323
321
375
369
319
324
326
329
334
340
351
360
368
369
361
332
310
303
304
307
309
312
315
313
318
316
318
320
323
334
334
322
318
323
308
450
272
329
324
328
330
334
341
356
366
367
371
353
326
302
297
294
294
295
293
293
288
292
299
304
286
285
287
286
330
353
285
299
306
310
317
324
342
364
384
402
410
379
345
322
305
286
275
266
266
266
268
263
243
218
213
221
221
403
195
253
248
251
253
254
262
280
291
288
283
257
225
214
215
213
210
213
213
212
213
223
239
232
216
211
212
191
303
182
205
207
220
230
237
258
277
304
311
328
315
296
291
292
302
318
323
337
344
372
379
380
396
403
409
600
404
494
491
514
525
536
543
553
559
556
535
489
433
395
368
350
332
321
318
317
328
319
310
304
309
282
523
227
309
314
321
334
351
367
396
422
435
442
427
396
389
382
380
374
365
367
362
361
361
359
359
363
374
360
357
358
356
366
515
345
352
354
356
362
369
382
398
405
407
398
370
348
339
338
341
341
342
340
342
342
343
341
341
345
362
347
336
340
336
318
612
281
329
328
335
335
337
352
359
370
371
369
340
312
298
296
296
298
300
300
300
301
300
309
321
299
293
296
298
328
364
292
301
308
314
320
332
346
360
368
375
366
337
319
315
317
319
322
326
326
331
343
352
334
336
337
337
371
427
333
341
347
351
355
365
378
391
399
398
382
350
330
325
325
327
330
332
333
334
334
342
358
344
335
337
340
323
615
295
340
343
345
349
355
365
376
384
384
379
350
324
316
314
316
320
319
320
318
318
318
318
318
318
319
320
325
339
323
320
320
320
330
470
305
315
319
323
325
333
346
356
364
364
357
333
302
292
289
291
295
297
297
296
298
301
301
298
305
323
312
299
301
305
282
562
221
312
311
316
321
328
338
354
367
373
373
355
328
315
315
316
318
322
326
327
330
336
352
342
333
334
338
316
597
253
344
345
344
349
352
362
376
385
389
384
356
324
312
311
308
312
314
316
316
316
317
323
340
324
316
317
319
303
589
272
317
320
323
326
333
343
356
367
369
364
336
308
301
298
302
305
310
307
311
313
316
318
323
341
327
322
324
324
309
594
285
327
331
335
339
346
356
371
382
382
380
353
326
314
315
315
318
321
323
325
331
322
326
332
341
327
326
335
325
430
307
332
329
334
336
338
345
358
370
381
375
360
333
312
304
305
307
308
312
312
314
327
337
322
320
317
320
346
423
307
322
329
331
334
342
353
363
371
373
361
330
312
307
305
310
311
315
319
320
325
331
342
322
319
320
320
357
401
313
320
324
325
332
340
352
365
373
374
361
330
310
304
305
308
312
313
314
314
315
319
336
321
312
309
313
289
564
235
313
316
317
319
324
341
350
343
354
359
322
287
289
285
265
281
289
294
289
285
293
298
309
296
293
292
296
386
280
308
299
307
315
318
330
345
354
365
372
364
311
319
289
300
305
312
313
323
351
324
318
319
312
300
472
226
325
318
325
340
340
357
398
425
397
425
311
335
326
334
357
325
357
335
351
373
370
370
353
345
348
506
269
365
361
368
388
374
389
387
405
411
399
378
349
343
330
327
334
333
333
342
357
337
329
336
332
357
433
317
332
341
345
336
343
362
370
376
384
367
344
336
335
339
354
365
368
384
382
355
348
343
344
362
426
318
321
319
312
311
312
318
326
325
328
310
283
265
261
261
260
265
266
271
256
267
305
274
252
282
280
268
556
208
288
313
327
310
333
347
374
371
383
398
381
365
355
359
364
368
370
381
376
378
390
399
377
374
375
372
338
634
275
357
356
356
361
367
352
364
376
376
363
351
315
311
309
310
311
315
307
311
314
334
308
303
311
306
282
523
197
304
308
307
307
312
325
333
338
351
329
318
299
276
273
277
277
275
284
286
290
300
308
314
294
298
304
300
402
262
305
313
310
313
315
327
334
346
354
354
340
322
302
302
305
313
317
310
322
314
318
318
317
322
320
329
341
344
321
318
328
307
568
239
336
345
337
334
353
365
362
381
387
379
375
347
334
339
339
347
350
356
343
352
345
348
351
361
374
351
345
350
350
345
502
325
347
353
355
353
357
363
374
376
375
363
340
318
303
302
302
307
296
291
298
293
315
312
291
292
292
288
399
248
303
307
317
314
324
338
350
362
363
368
355
330
315
317
310
317
323
314
317
310
319
334
319
308
310
312
283
543
207
307
311
316
314
320
334
347
355
360
366
335
316
304
303
306
313
309
325
312
313
320
327
334
314
319
317
318
378
332
317
320
323
326
331
337
350
361
371
368
360
333
320
312
318
316
317
313
319
318
315
321
337
337
306
319
322
313
415
274
324
325
330
325
338
347
340
355
360
363
354
332
315
307
315
309
319
323
306
331
347
330
317
321
315
294
518
219
319
319
323
311
320
321
333
340
354
332
323
304
287
291
286
305
295
303
310
320
337
337
318
324
336
315
585
240
349
359
360
353
370
373
386
394
399
407
373
354
343
339
340
344
344
348
343
355
359
342
338
343
323
499
251
339
337
340
339
344
353
367
365
372
368
357
325
310
306
320
295
308
315
310
316
332
320
313
312
309
288
520
212
313
312
308
310
320
328
341
344
336
336
318
293
279
276
275
276
281
283
301
293
283
277
280
274
434
216
297
299
307
308
324
329
342
350
353
356
344
322
317
314
311
319
320
326
329
346
337
329
342
316
304
557
215
319
319
317
323
321
328
346
337
344
342
317
286
269
264
264
271
279
270
282
301
299
284
287
292
295
366
314
307
313
320
327
332
340
356
369
373
372
357
328
312
310
311
314
312
316
315
317
314
315
318
324
307
299
300
303
303
536
271
312
316
322
327
335
343
354
365
361
362
342
321
318
316
327
327
331
334
339
337
357
360
338
331
340
337
393
338
320
327
331
332
334
339
351
366
363
370
363
341
331
331
326
331
330
329
343
353
332
330
325
330
317
590
261
337
339
341
342
347
357
368
377
375
370
342
326
319
318
322
322
323
326
331
343
332
322
323
324
307
591
232
336
335
339
340
346
356
362
369
371
365
342
323
310
307
308
311
319
322
316
318
319
333
342
370
275
322
307
560
231
340
350
355
367
379
399
419
439
444
457
436
408
412
409
404
413
412
412
412
407
411
410
428
399
381
400
400
376
535
322
391
389
394
394
391
393
408
414
411
408
391
366
346
341
339
334
330
327
323
319
309
315
321
304
294
290
292
273
545
218
271
278
276
279
283
287
309
313
316
313
287
272
268
265
264
265
278
277
277
283
301
305
294
294
299
297
331
352
292
299
294
296
299
309
305
309
318
321
306
279
259
248
252
244
253
251
252
264
272
243
244
243
244
259
371
223
249
262
269
278
295
309
311
322
308
299
284
274
261
240
248
256
248
260
270
284
275
266
257
251
232
494
171
222
223
225
224
230
244
260
267
292
297
284
260
240
238
246
244
239
255
268
281
296
314
306
323
362
370
373
587
361
402
406
414
419
419
433
452
445
448
444
418
389
382
367
366
360
338
324
321
326
299
282
287
297
291
551
254
289
311
325
324
349
353
383
397
394
406
384
360
362
358
363
368
371
376
382
411
395
383
384
384
361
658
309
398
405
418
409
412
438
462
463
467
473
435
428
428
411
425
416
429
427
419
446
431
415
407
399
393
373
605
296
332
338
317
325
331
343
352
346
361
340
305
299
304
281
303
303
312
322
324
346
336
346
333
360
347
539
320
360
358
363
362
378
367
391
397
395
389
370
366
326
334
336
343
344
347
333
338
350
316
316
321
283
513
198
292
296
299
300
308
321
334
341
342
339
313
283
268
260
263
254
252
246
239
244
245
241
224
223
265
276
510
299
394
382
379
366
350
347
345
339
332
315
283
259
247
249
243
250
244
235
237
240
245
256
278
266
263
269
270
255
520
218
259
264
267
277
275
283
275
271
280
277
251
207
194
178
156
136
119
160
170
170
183
195
175
183
178
182
186
374
166
208
220
240
264
309
320
339
343
343
335
305
282
275
289
288
305
318
325
348
340
327
329
333
319
532
248
343
338
338
332
336
345
350
356
361
361
338
319
312
313
310
317
319
322
342
338
326
325
332
328
371
356
305
303
298
292
283
290
288
283
297
280
278
254
250
257
249
258
256
256
280
279
245
210
196
168
162
293
181
216
245
263
283
304
320
336
358
365
363
348
334
357
372
387
408
440
481
514
522
547
569
587
602
663
590
599
611
640
608
625
651
655
653
657
655
620
589
593
581
586
557
560
539
547
528
501
498
475
450
558
379
417
384
377
357
361
340
350
343
339
328
295
261
258
240
235
223
225
233
227
233
236
210
222
220
190
476
157
223
212
221
220
221
237
250
261
272
271
253
231
235
232
238
242
248
251
265
244
247
250
249
236
478
200
248
241
257
256
266
268
287
290
286
279
249
233
234
226
235
248
253
282
288
271
281
288
286
391
285
311
318
323
330
333
340
346
360
363
361
343
320
315
320
319
330
336
345
365
350
343
350
344
323
621
274
351
365
362
373
382
392
409
412
419
412
377
360
352
349
351
352
358
362
376
381
368
366
366
364
397
441
352
356
361
362
360
359
371
373
381
373
358
329
316
315
316
318
319
322
335
345
325
330
326
329
350
462
326
331
341
349
349
363
381
391
401
408
398
374
374
368
372
390
395
406
418
416
412
411
412
393
626
336
408
409
411
419
423
426
431
436
420
407
374
342
325
321
316
312
304
300
308
288
266
257
257
227
525
172
264
272
281
294
311
322
336
338
340
305
282
257
237
231
232
236
239
242
253
270
268
260
264
264
240
516
153
240
234
229
230
236
246
260
273
277
279
266
242
247
257
277
294
314
329
357
383
382
401
423
447
482
657
497
663
664
664
663
661
655
655
660
660
651
561
502
461
442
440
434
427
413
405
390
357
342
338
336
385
380
317
306
300
289
279
273
274
280
277
268
242
208
190
180
172
166
163
158
162
165
180
174
170
180
192
179
484
141
201
198
194
201
210
226
244
258
267
263
241
226
224
231
240
245
253
257
263
269
280
301
289
287
294
300
303
620
360
409
405
404
403
409
424
443
456
462
457
430
401
395
392
392
394
393
390
392
391
405
391
374
371
368
344
599
268
369
365
363
361
361
365
375
383
386
385
366
338
330
328
335
347
363
367
363
367
366
346
347
360
372
400
538
376
392
397
399
403
404
416
423
422
415
394
358
336
326
322
318
318
312
309
301
297
297
305
302
279
268
258
250
326
274
270
275
287
295
303
313
327
340
346
346
331
301
286
281
281
277
273
274
269
264
260
259
256
270
248
235
234
228
202
495
138
213
210
214
221
228
244
261
273
283
285
268
251
248
253
263
270
279
282
288
302
320
309
306
309
316
302
591
264
337
343
351
354
366
380
397
405
407
404
378
361
356
359
363
366
370
375
373
385
391
374
372
370
366
409
406
352
352
355
354
353
355
365
374
382
380
360
327
311
304
304
305
318
306
313
307
320
324
334
322
316
316
317
331
460
304
301
298
294
297
297
306
317
324
327
318
289
285
292
306
316
325
328
328
327
336
337
322
318
319
295
540
251
331
285
212
148
138
160
176
178
180
189
187
185
202
227
247
252
256
265
281
311
337
331
329
333
339
339
567
321
364
373
378
381
391
400
416
430
441
440
420
413
418
427
443
455
463
467
466
468
476
488
476
465
459
453
440
655
395
414
408
400
394
390
390
395
395
388
366
328
300
289
284
283
281
284
281
282
284
285
291
303
289
285
288
289
316
389
281
288
292
297
301
309
323
338
343
341
330
299
276
272
274
281
290
295
297
295
305
315
298
292
292
295
272
579
207
293
297
300
304
312
317
338
344
349
349
323
305
302
308
314
317
319
323
325
321
319
324
341
329
319
320
321
299
600
239
325
325
329
332
335
343
356
364
365
363
335
308
298
297
300
306
310
314
317
317
321
322
332
337
324
324
326
322
404
333
325
328
335
343
348
357
374
387
389
387
368
334
320
319
324
326
330
330
330
335
336
335
336
346
353
340
335
338
334
381
373
324
335
333
334
342
346
356
367
374
370
356
324
305
299
301
304
313
318
319
315
324
329
312
306
307
311
319
498
290
322
330
336
343
351
366
384
387
390
377
347
329
325
328
332
337
341
343
344
347
348
361
360
347
345
345
322
567
248
343
339
342
343
349
353
364
376
377
372
345
313
300
298
297
300
300
300
300
299
297
296
295
295
301
312
302
290
293
298
269
580
218
288
292
295
297
308
319
336
352
360
361
342
319
312
306
315
320
321
329
330
341
352
360
374
392
369
360
354
349
336
531
282
308
303
299
301
303
309
326
327
327
317
288
259
251
249
251
257
255
259
271
280
265
265
266
269
267
485
238
284
292
298
305
317
333
353
363
370
361
338
320
318
321
327
334
339
340
344
362
358
351
352
353
332
557
257
355
358
363
374
384
395
411
422
427
427
400
370
358
357
358
361
363
368
369
372
376
386
380
365
364
364
339
634
271
356
355
359
362
367
378
391
407
411
405
378
351
339
335
336
338
337
337
333
332
329
325
323
330
326
307
304
301
282
451
224
291
287
290
294
298
306
319
331
335
337
323
292
279
278
279
286
290
289
290
292
290
296
307
313
294
294
294
297
332
363
288
300
302
308
312
322
336
346
355
357
347
320
304
303
305
313
320
326
329
335
353
356
343
346
349
344
492
296
366
365
373
380
385
392
406
420
424
423
400
365
354
351
348
348
349
348
347
347
342
345
359
354
340
338
338
314
593
234
327
324
328
329
333
338
349
356
358
353
327
298
286
284
286
290
294
295
298
299
303
304
308
314
325
331
322
323
327
315
496
264
335
334
340
345
353
363
380
394
398
400
387
356
343
343
346
347
351
356
356
358
356
354
354
348
358
368
348
338
342
336
349
462
309
325
326
326
330
334
341
354
358
357
351
323
296
291
291
293
297
301
304
305
310
324
320
309
308
315
293
570
221
325
327
330
337
343
354
367
378
379
376
349
322
309
306
305
305
304
304
303
302
313
320
308
303
306
305
335
413
295
302
307
311
317
323
337
351
358
360
347
317
298
292
292
294
295
298
300
299
303
303
309
326
318
309
310
313
288
548
225
314
314
319
323
326
336
347
356
357
354
336
301
284
280
273
277
274
273
268
265
267
273
259
251
254
254
242
516
203
266
274
283
293
311
329
352
367
376
383
363
350
347
353
359
365
370
373
374
387
391
374
373
374
372
413
454
362
369
371
372
375
379
391
403
405
403
386
355
334
327
325
326
328
329
329
328
328
328
339
343
327
326
326
318
390
341
322
321
328
334
339
345
357
369
374
371
356
323
306
301
302
308
312
317
322
324
325
326
335
349
338
326
325
324
300
614
247
323
326
327
334
333
343
352
358
361
353
329
298
288
284
285
294
292
291
289
294
306
289
284
286
285
274
534
233
292
297
304
311
318
330
345
354
356
357
332
314
311
313
315
322
325
326
329
338
349
336
332
337
337
341
551
309
339
340
345
348
355
365
377
384
387
374
344
324
317
317
318
321
320
321
320
320
321
332
333
316
314
311
301
445
263
319
319
324
331
336
346
362
370
379
381
365
335
323
317
322
325
325
330
325
325
326
341
342
325
324
324
313
463
250
321
313
315
313
315
316
324
331
329
324
304
269
248
243
239
232
236
230
228
237
211
193
189
180
145
416
62
134
133
121
126
130
140
150
173
180
175
145
127
118
115
112
121
120
125
149
150
142
151
156
159
353
102
191
200
212
226
245
263
283
304
308
317
310
293
292
302
313
326
322
344
349
330
318
316
317
337
443
278
312
320
332
339
340
328
308
278
265
251
231
231
240
247
263
276
289
295
300
314
334
347
343
347
353
358
363
583
348
422
458
457
454
453
466
482
488
488
512
477
446
425
446
435
435
420
405
393
378
373
376
377
375
390
411
430
438
440
442
446
447
460
466
476
487
496
529
655
476
484
485
485
489
497
507
525
539
549
560
553
545
546
544
553
554
557
563
569
568
558
543
527
518
496
481
484
466
446
443
438
423
658
373
411
409
403
396
392
390
396
396
391
378
344
312
300
291
283
276
272
263
253
248
245
244
241
237
235
243
232
220
228
227
203
508
131
203
203
211
218
233
253
274
293
303
307
292
272
273
278
284
297
304
311
317
326
331
339
342
352
369
365
353
357
357
334
617
273
353
353
356
355
358
363
375
384
385
384
361
332
319
314
316
317
320
323
324
325
327
326
330
334
344
354
333
328
328
310
503
253
328
326
332
335
341
350
363
371
373
374
355
323
307
301
299
300
307
309
305
309
314
319
334
311
303
300
295
356
328
293
297
303
307
309
315
317
326
330
329
313
275
254
247
245
242
237
226
213
224
255
285
294
301
289
259
384
201
240
240
262
261
271
293
311
330
343
347
323
282
248
241
254
262
276
275
284
309
286
263
272
277
260
417
209
259
252
258
262
271
291
310
319
340
358
300
307
295
294
301
315
354
357
371
389
429
376
405
446
436
462
662
451
559
573
599
612
632
618
638
652
626
610
559
559
537
529
525
501
517
467
466
468
438
397
407
392
352
628
260
332
308
322
287
302
291
295
299
291
293
254
214
214
219
203
211
209
222
234
232
243
237
229
232
235
224
416
127
215
222
195
214
219
229
224
276
308
310
309
296
293
318
334
333
352
367
360
364
377
393
385
373
369
388
342
557
269
355
360
359
352
338
354
355
345
350
350
333
286
277
290
277
279
289
283
299
291
289
301
312
322
305
298
307
302
357
322
305
307
317
327
322
343
356
369
366
380
367
328
327
314
332
338
348
340
345
350
353
357
361
371
389
387
384
371
382
359
556
280
381
384
387
386
378
386
390
396
404
388
353
322
308
288
285
283
285
282
284
283
287
289
304
317
293
306
306
310
371
357
338
344
349
355
363
378
387
400
407
400
386
352
325
312
312
313
302
306
304
294
287
289
291
291
277
269
272
255
366
222
264
272
272
271
281
287
296
317
322
315
311
281
269
272
272
275
285
279
288
302
324
300
296
294
294
274
555
203
276
265
252
239
233
220
218
209
198
195
163
136
127
130
135
146
162
171
182
209
209
204
215
226
220
384
206
271
283
307
322
343
370
385
408
431
441
436
417
410
406
409
411
401
409
415
418
417
417
421
426
408
660
370
442
446
438
447
453
460
473
478
486
483
451
437
440
439
454
451
459
459
484
533
513
527
540
533
520
662
476
512
502
491
473
465
470
452
447
433
423
383
344
320
319
307
301
290
281
279
275
282
269
255
253
247
239
464
209
238
246
258
260
280
285
310
313
320
311
293
273
272
272
283
293
303
303
308
317
338
324
314
311
293
259
492
106
157
142
182
221
238
242
237
216
215
213
211
156
123
167
203
197
222
238
266
287
274
271
277
284
287
464
249
282
280
282
281
284
293
297
301
304
297
276
263
265
276
291
314
336
359
374
401
421
414
420
429
428
487
490
435
436
443
445
448
455
467
471
473
470
453
419
403
395
397
397
397
398
392
392
399
386
371
366
361
337
617
267
352
346
349
341
346
349
351
358
348
338
306
272
261
252
252
265
278
279
305
347
278
273
294
413
282
627
308
430
444
481
498
505
527
568
564
587
584
561
535
520
518
513
501
495
489
452
454
446
426
394
389
371
429
351
347
327
323
312
304
302
299
299
294
283
261
223
208
195
202
206
202
201
204
209
213
228
208
199
196
201
178
405
97
194
197
183
177
200
208
203
221
229
267
259
264
279
295
320
356
345
389
371
411
419
402
420
410
375
629
322
365
342
323
284
252
233
661
664
665
665
665
665
667
665
664
665
665
665
664
663
661
579
511
445
384
550
251
305
257
206
153
120
82
43
0
0
0
0
0
0
0
0
0
0
0
0
0
0
0
0
0
0
0
0
0
0
0
0
0
0
0
0
0
80
167
227
279
332
385
414
446
474
495
520
548
554
610
660
662
659
662
559
568
559
536
440
401
417
427
455
469
465
429
407
402
408
422
426
392
355
340
343
326
323
348
370
363
589
319
349
357
363
369
378
389
397
399
390
370
350
340
341
345
359
376
385
406
404
413
421
432
423
478
513
662
460
547
561
537
561
582
615
609
623
646
607
598
572
532
554
538
521
523
515
511
516
494
462
483
454
462
524
433
419
414
419
393
421
383
395
374
373
368
301
287
269
273
249
256
259
227
234
150
139
114
99
81
99
137
8
21
0
0
0
0
0
0
53
17
24
20
0
0
11
66
75
70
97
126
165
193
235
272
265
399
334
407
441
486
511
572
564
558
627
578
554
538
507
497
477
483
448
468
443
464
476
455
406
431
431
530
418
451
455
526
540
480
522
521
558
511
509
446
407
368
348
317
297
282
254
244
218
155
100
8
0
0
0
0
0
0
0
0
0
0
0
0
0
0
0
0
0
0
0
0
0
0
139
124
83
178
217
238
606
277
411
439
461
493
498
522
549
537
546
547
540
535
454
488
503
538
610
652
661
663
663
663
664
663
664
664
664
663
662
661
661
659
657
658
658
609
593
562
508
477
467
440
482
428
392
414
445
408
426
441
431
457
473
645
459
494
510
497
516
495
493
530
539
529
532
467
462
451
426
419
387
379
326
316
246
260
191
264
294
550
285
415
332
412
446
507
483
478
474
344
271
190
82
26
0
9
0
5
0
16
40
62
73
132
170
142
344
190
276
290
322
350
355
396
451
479
526
523
564
510
494
486
478
489
455
445
401
425
340
381
383
447
316
632
349
361
355
340
348
361
374
367
383
404
363
346
336
327
338
332
359
348
376
360
364
358
350
329
325
569
211
277
245
208
198
173
159
146
131
118
91
47
26
1
0
0
0
0
0
0
0
0
0
0
4
12
7
62
75
74
91
88
99
87
82
87
34
6
0
0
0
20
32
45
71
71
69
68
93
69
361
73
139
163
215
262
309
342
391
431
456
477
478
482
495
506
529
537
546
568
558
548
534
524
511
606
562
519
512
504
513
522
528
544
560
575
572
561
547
540
549
558
564
554
552
576
538
512
524
513
486
661
485
492
484
482
467
467
464
463
461
455
444
411
386
376
372
373
366
363
375
376
384
381
377
365
367
370
398
430
353
337
353
341
343
350
355
375
377
379
365
344
320
335
334
340
347
349
342
373
353
327
323
328
326
376
376
317
307
301
303
320
327
348
356
367
374
378
354
351
366
395
416
436
446
474
496
478
460
455
453
407
658
350
455
456
458
447
457
468
461
450
425
392
327
267
234
192
168
153
125
119
85
4
0
0
0
0
0
0
0
0
0
57
127
198
258
316
353
362
348
347
351
352
347
354
366
369
360
355
325
323
323
457
186
208
216
238
252
275
297
310
327
324
321
303
289
301
300
334
321
307
300
289
245
220
202
184
309
139
187
175
184
191
202
219
230
247
252
252
242
222
215
216
221
226
219
231
230
202
198
197
201
214
348
188
226
231
236
251
267
292
312
323
337
340
327
324
339
348
363
367
388
405
399
402
411
427
417
660
371
427
429
413
425
435
445
456
465
467
456
427
400
396
391
391
384
395
390
362
348
356
357
403
434
361
383
395
405
421
438
457
475
481
479
465
415
395
381
377
370
363
384
371
358
356
360
344
546
291
371
371
373
369
367
361
369
367
369
364
333
313
307
309
308
309
308
325
324
312
317
318
321
363
405
327
334
336
343
349
358
367
375
376
368
345
316
307
304
307
295
299
304
296
324
339
348
366
430
412
412
658
656
502
642
660
662
663
664
664
664
664
664
663
660
617
541
527
479
463
428
419
382
379
351
331
302
325
285
292
453
255
273
265
263
242
262
250
275
218
266
277
214
253
216
283
255
280
278
298
323
318
324
319
314
303
599
273
333
324
335
353
299
357
355
360
367
368
323
321
320
313
321
319
327
311
285
280
277
242
228
207
222
292
167
151
147
139
135
145
161
174
199
216
200
190
191
190
197
196
233
228
230
262
254
241
251
253
240
445
198
274
276
295
301
315
334
352
366
365
368
345
322
320
318
325
339
343
354
359
362
381
384
369
364
369
357
470
353
385
361
376
377
379
385
390
402
404
402
381
354
344
340
338
342
341
339
341
342
348
369
356
347
352
351
326
636
276
356
356
359
365
371
381
392
400
402
398
369
348
343
346
354
360
367
373
376
378
388
400
391
378
375
379
357
575
292
376
371
373
374
375
380
388
392
388
382
360
325
312
307
304
300
296
292
287
286
290
299
278
276
276
278
282
440
261
277
281
286
292
301
311
323
329
331
321
291
274
271
272
277
280
282
282
284
293
290
273
271
266
255
348
230
252
246
251
252
259
264
277
288
295
296
276
247
236
235
242
252
266
277
302
313
307
317
328
339
392
399
362
378
387
397
405
419
432
440
440
438
417
384
368
356
348
342
340
336
334
356
348
341
344
347
323
633
273
355
360
367
376
389
402
422
435
430
424
389
361
346
338
332
326
316
297
303
287
237
214
192
176
221
181
146
142
153
164
176
194
217
233
242
253
247
232
234
248
269
285
301
309
333
344
324
320
322
323
332
495
307
336
340
344
356
364
374
389
396
400
383
360
341
336
341
339
343
347
345
358
368
352
340
338
331
295
572
219
274
266
254
243
250
257
263
269
280
292
296
316
349
403
463
534
558
615
651
657
659
661
661
662
664
660
638
608
585
561
525
511
472
438
406
357
300
279
258
218
224
175
152
128
76
16
21
0
0
0
31
0
0
0
0
0
0
113
194
239
224
191
156
160
187
287
397
508
594
627
645
634
634
651
655
626
616
663
571
611
600
600
578
557
558
563
558
533
534
480
434
406
433
390
399
392
386
380
386
362
352
344
327
310
561
246
319
308
306
311
322
320
331
342
335
323
302
271
259
263
251
252
262
249
252
264
255
265
276
268
287
288
267
284
272
330
300
284
274
281
290
299
302
315
333
346
347
330
316
294
293
291
296
310
307
309
310
312
316
325
314
338
338
347
343
349
334
487
255
319
299
290
248
255
229
238
232
209
195
182
153
183
165
195
226
244
266
311
336
389
426
428
431
436
428
404
658
323
403
394
384
384
380
381
375
367
360
351
302
275
297
297
335
334
353
341
320
274
265
237
240
237
250
376
203
285
330
395
451
435
472
500
500
489
505
485
471
594
594
609
596
597
553
549
560
533
492
462
414
395
310
521
154
220
221
228
220
221
302
291
293
304
314
288
234
221
191
159
125
104
87
49
29
29
30
39
44
26
270
0
2
19
35
41
58
77
96
111
130
128
118
121
120
130
140
135
126
146
168
179
196
219
248
254
496
268
324
340
335
358
376
391
399
405
412
410
395
387
387
399
406
406
424
437
447
442
383
394
384
654
366
453
461
481
504
528
563
591
609
625
616
579
557
537
513
513
505
500
503
492
470
456
448
424
658
364
431
430
438
438
444
441
441
447
441
427
389
352
325
310
303
290
277
279
269
236
227
221
206
358
166
230
201
178
156
115
85
47
48
41
8
25
57
70
138
201
261
319
362
364
335
275
228
259
45
0
0
0
0
0
0
0
0
0
0
0
0
0
0
0
0
0
0
0
0
0
35
59
267
75
197
233
276
312
350
391
429
461
486
507
505
506
518
542
567
597
638
654
658
657
656
655
596
664
541
545
595
623
640
658
660
663
662
662
664
417
333
332
333
332
333
332
304
266
201
141
80
0
4
0
0
0
0
0
0
0
0
0
0
0
0
0
0
0
0
0
0
0
42
69
94
119
143
191
252
194
216
238
248
272
295
315
304
305
302
303
287
283
292
308
318
328
336
352
348
347
356
363
346
627
296
364
352
346
337
321
330
339
328
321
324
317
318
329
338
347
352
368
405
424
452
487
517
516
663
495
549
544
541
542
545
545
548
544
542
534
501
478
465
465
462
458
474
477
459
453
451
448
477
521
440
446
450
443
446
445
439
430
423
407
375
333
303
291
278
268
275
269
238
224
219
211
216
325
175
199
196
196
206
208
225
228
236
232
226
202
189
191
194
191
209
210
182
169
162
162
168
336
165
222
246
271
293
315
315
305
312
372
386
362
348
411
500
617
644
662
663
663
664
664
665
664
663
664
664
663
663
663
662
661
659
617
571
578
506
463
458
407
424
348
356
342
283
262
245
155
396
0
5
0
0
0
0
0
0
0
0
26
2
0
0
23
27
78
142
141
224
183
221
284
273
290
322
330
499
398
422
465
536
520
537
567
570
584
565
543
464
413
358
311
260
219
224
197
205
227
194
222
234
236
240
235
230
237
226
300
221
239
235
255
272
287
303
314
298
290
306
308
284
308
357
378
386
364
360
384
407
468
477
511
508
515
498
484
656
417
523
510
523
507
547
537
514
523
622
664
665
665
665
665
665
665
665
665
665
665
664
664
665
665
665
665
665
665
662
597
496
440
404
360
299
283
247
199
171
148
140
120
115
94
115
98
72
67
58
31
270
0
11
30
21
32
43
57
86
94
99
103
70
61
53
69
72
86
97
108
124
121
116
127
133
149
323
137
175
196
218
235
263
286
309
307
319
322
298
294
300
311
319
326
354
368
346
331
333
314
432
276
322
331
314
314
316
318
328
333
341
338
309
281
261
252
251
261
267
286
277
259
258
262
243
477
189
286
287
286
291
294
303
326
352
379
398
393
388
384
382
374
372
369
381
403
393
505
665
664
665
664
664
665
665
664
665
665
665
665
665
664
664
664
661
488
408
319
169
0
0
0
0
0
0
0
0
0
0
0
0
0
0
0
0
0
0
0
0
0
0
0
0
0
0
0
0
0
0
0
0
22
43
281
58
118
142
166
192
217
250
285
307
313
318
313
318
334
359
380
400
419
447
467
465
477
486
491
582
594
518
526
539
549
552
562
574
584
589
581
547
515
505
501
507
510
512
508
504
495
489
485
489
459
452
439
415
490
426
401
399
400
399
395
395
396
395
393
386
361
330
302
295
306
316
318
303
314
320
303
290
234
253
241
543
205
304
322
333
347
365
386
402
428
439
448
391
372
358
362
380
379
357
358
353
361
334
323
316
299
275
557
216
268
283
258
260
269
275
277
282
282
275
249
235
238
254
249
267
272
273
308
317
299
306
306
310
398
322
319
317
321
326
331
346
343
351
352
302
275
210
220
209
211
233
239
246
255
271
292
275
271
271
276
284
451
240
279
269
280
273
266
275
274
285
261
242
209
185
184
197
213
229
237
246
262
276
246
224
207
196
215
301
172
191
205
214
227
240
259
274
269
265
249
221
219
217
217
229
231
234
240
248
259
237
229
232
239
263
364
243
276
288
304
318
338
357
383
401
413
417
405
392
385
377
370
371
378
393
414
393
388
389
385
391
585
353
371
369
367
369
374
380
389
390
387
371
343
322
312
313
318
320
319
328
348
333
323
319
323
309
620
258
332
338
346
355
363
381
394
407
411
405
389
392
401
424
439
455
463
464
457
475
470
459
464
468
472
580
534
471
475
480
481
479
479
474
477
472
436
414
357
333
304
292
280
273
274
284
291
275
259
266
268
261
512
217
269
273
277
287
301
320
340
355
360
354
340
323
324
332
336
353
356
377
387
363
351
350
330
348
406
273
260
275
267
271
283
293
304
304
296
282
253
243
243
247
247
245
250
248
248
256
244
233
238
234
224
525
188
245
253
261
266
280
290
313
306
313
301
273
256
257
260
266
269
277
279
279
280
296
300
277
274
272
253
412
176
247
239
237
229
230
239
244
246
239
231
205
168
152
140
136
136
136
136
157
156
133
133
134
134
220
182
169
193
206
216
230
250
269
285
301
310
306
295
299
308
323
335
336
345
354
396
402
401
412
420
402
659
333
428
426
429
429
429
431
437
441
443
434
408
386
382
379
379
378
379
378
375
372
371
380
385
370
367
369
368
407
486
352
358
360
358
359
363
370
377
373
372
352
323
306
304
305
312
314
316
321
324
322
327
337
355
351
336
337
338
319
470
263
326
318
325
331
334
340
350
352
351
342
326
296
277
270
272
278
280
283
282
285
294
316
293
287
286
291
274
602
204
299
303
310
314
319
328
338
342
339
330
306
291
287
289
295
299
303
310
304
303
318
325
306
301
304
306
349
418
311
323
326
325
333
347
362
373
376
372
350
320
303
297
296
300
303
300
298
298
299
300
310
315
300
295
302
305
345
423
308
321
331
333
343
350
363
375
380
381
363
331
310
301
299
299
299
293
291
289
289
303
302
283
282
276
266
337
286
262
271
278
285
291
300
317
328
335
336
317
289
274
271
269
272
277
281
284
295
311
297
295
295
298
287
577
238
308
314
319
323
334
353
369
387
403
396
375
358
346
340
339
336
337
337
333
328
332
346
329
319
318
319
324
544
301
336
345
355
366
380
398
410
420
424
408
371
350
344
343
345
351
356
355
353
356
358
373
370
355
346
348
334
443
304
334
329
327
326
324
322
332
334
330
319
297
262
246
240
240
245
234
235
231
248
253
232
230
234
248
256
463
225
279
289
300
313
323
334
351
362
359
348
314
293
283
277
280
282
288
299
302
324
320
312
324
338
333
525
274
360
362
365
365
366
374
377
369
365
360
332
306
292
288
286
288
295
297
296
298
299
308
323
318
308
310
313
295
511
227
325
323
330
331
336
344
358
368
370
369
345
320
309
309
312
313
319
321
323
326
334
335
342
354
370
352
343
342
345
325
646
248
344
342
345
350
352
359
372
378
382
374
353
325
313
309
311
316
316
318
317
319
332
340
317
316
317
321
347
455
306
335
338
341
345
350
360
370
368
367
351
317
291
280
276
280
286
297
305
314
327
322
303
300
302
284
463
222
304
301
302
306
310
323
334
344
347
350
323
296
289
287
290
292
295
301
300
299
310
310
292
289
291
295
307
470
281
302
307
316
325
334
345
363
373
376
364
331
321
313
310
318
318
313
303
312
314
286
270
253
243
215
459
147
207
207
211
214
222
231
239
237
241
232
208
192
196
198
199
186
187
180
197
185
171
175
180
159
397
97
210
213
218
190
183
172
161
143
129
114
96
90
114
123
152
189
214
243
277
326
348
377
408
433
442
662
416
508
524
538
554
572
590
606
612
619
607
562
543
534
526
522
519
513
506
500
507
514
492
471
464
464
435
662
352
466
480
500
516
537
560
580
588
587
580
544
519
503
491
503
520
536
541
544
561
581
571
547
518
500
467
584
410
412
395
386
366
367
356
346
348
334
312
286
249
224
220
215
213
215
210
207
217
199
180
171
167
132
407
51
142
138
135
130
119
132
148
159
173
175
157
145
147
155
168
185
201
213
234
260
256
268
278
289
314
618
271
355
407
425
424
436
460
549
407
519
610
615
630
642
649
653
620
625
601
559
550
516
479
495
462
401
657
330
454
458
429
441
430
443
444
410
401
391
357
320
303
291
278
275
247
233
258
231
184
193
210
212
176
417
129
189
192
184
207
212
244
208
232
224
228
208
191
207
201
200
206
203
224
263
275
272
267
262
274
260
242
485
206
271
312
325
347
356
357
365
362
349
308
237
204
142
104
90
56
60
28
0
20
0
0
16
52
76
149
191
176
189
210
222
240
276
305
334
361
368
329
317
316
308
330
337
355
352
374
375
360
349
363
304
492
269
316
328
329
290
304
315
308
319
327
317
305
294
295
304
315
317
325
313
320
325
331
324
332
341
337
518
287
359
322
304
301
313
326
334
336
337
342
324
295
289
297
286
303
307
306
320
336
326
329
342
348
375
468
357
369
380
393
396
407
421
427
435
436
422
397
389
394
389
390
395
423
433
451
451
465
481
496
504
662
504
649
661
664
664
664
664
665
664
664
664
663
658
584
565
547
526
502
478
475
442
401
381
365
324
584
239
309
299
301
300
298
298
298
305
288
270
229
194
175
164
164
172
184
198
220
226
233
251
272
269
550
241
333
337
312
303
297
307
323
335
340
341
307
280
270
289
282
284
273
321
324
371
320
381
425
424
655
417
445
441
432
447
459
464
532
507
540
591
483
550
655
661
663
664
665
665
665
665
665
665
664
664
664
666
664
664
662
612
499
475
427
380
364
335
272
265
270
242
196
184
174
260
248
268
258
272
243
284
225
258
253
215
181
160
148
144
136
142
127
72
44
25
22
5
17
0
0
31
27
0
0
0
10
51
128
12
73
93
98
121
141
173
206
220
244
233
229
219
227
248
253
254
276
288
301
292
287
290
303
280
601
231
319
327
327
343
355
366
384
395
402
390
359
335
342
397
411
399
421
508
513
572
573
538
504
495
469
660
393
453
436
441
538
537
582
660
664
665
665
665
664
660
598
554
516
480
511
563
532
483
460
455
472
660
355
419
472
426
489
391
355
301
659
662
660
663
664
665
665
666
664
664
664
557
435
332
232
160
101
54
102
0
0
0
0
0
0
0
0
0
0
0
0
0
0
0
0
0
0
0
0
8
18
31
47
32
342
30
100
123
139
153
171
191
214
233
241
243
227
226
235
247
256
264
270
275
287
298
313
333
331
339
349
352
429
367
373
379
385
395
407
421
435
448
454
461
447
422
411
407
411
415
415
412
416
416
426
416
403
393
385
372
493
325
384
383
392
392
400
401
416
422
430
426
404
377
360
359
351
349
347
345
353
356
338
332
332
328
341
415
311
318
324
326
339
347
356
362
368
363
346
314
297
292
292
291
293
295
292
301
310
301
296
297
298
292
510
261
293
295
297
302
308
318
333
338
341
345
316
303
302
302
307
307
311
311
313
320
335
327
321
325
330
315
604
279
346
349
356
356
361
368
376
384
386
379
349
328
326
326
327
330
335
339
340
343
350
367
357
350
350
354
331
603
284
356
356
359
365
370
383
395
397
400
397
367
351
341
342
341
340
337
338
314
320
324
323
301
298
299
298
308
408
282
305
312
312
318
324
332
339
343
339
330
310
294
292
298
297
301
307
309
328
331
313
312
313
300
450
248
311
314
315
321
328
334
350
358
360
362
337
317
306
309
316
320
321
321
328
343
334
327
328
326
305
592
258
330
330
334
342
335
355
368
373
375
364
346
309
307
317
313
311
321
324
313
334
344
328
328
323
325
307
589
276
336
344
344
346
356
364
375
378
382
374
345
329
315
326
324
325
329
324
332
338
344
330
336
338
327
440
308
342
338
348
361
364
364
376
414
392
393
389
369
364
349
367
397
416
409
442
442
444
458
435
427
471
507
430
431
430
424
416
410
418
407
414
395
373
329
304
289
289
279
284
287
296
295
291
290
288
273
563
221
290
284
300
307
269
296
302
306
329
307
290
269
268
277
284
290
283
297
304
301
290
292
296
268
559
252
285
295
298
298
309
316
316
315
319
301
277
261
244
254
269
249
256
258
293
278
264
272
258
258
551
222
287
262
267
311
311
325
326
316
326
291
280
257
246
225
201
201
262
272
282
312
308
301
295
324
277
436
231
312
294
296
306
314
333
341
357
362
360
357
320
321
318
319
346
318
331
329
321
339
333
320
326
307
337
293
435
259
316
325
321
329
342
364
386
405
396
400
362
357
341
317
344
334
330
353
313
347
353
303
289
305
306
293
565
201
276
297
303
288
303
326
327
326
333
346
319
288
296
290
296
301
300
314
325
293
306
309
312
321
524
263
323
344
330
332
343
352
366
370
375
345
334
316
309
315
319
311
317
318
331
335
319
327
333
293
471
251
317
330
330
315
324
342
324
344
350
342
336
309
313
313
335
336
356
346
370
379
386
383
381
356
369
338
599
277
354
338
337
333
338
339
354
346
339
330
294
271
260
253
256
257
257
266
263
266
260
255
239
227
458
168
280
286
302
327
341
383
410
421
411
417
398
370
378
356
362
366
374
360
363
377
369
347
339
327
300
477
212
291
276
278
267
265
272
282
289
284
269
243
222
206
210
218
227
240
252
258
270
273
290
306
308
305
316
324
300
554
238
338
343
347
355
353
360
370
369
370
355
331
306
291
286
287
287
285
281
282
284
273
266
265
272
257
421
205
288
283
294
305
314
331
348
357
364
363
347
320
315
320
319
334
338
342
357
355
359
338
337
335
334
356
449
336
348
353
351
363
370
377
385
391
400
370
350
333
335
337
347
346
358
349
353
362
359
339
350
335
341
365
453
336
356
365
362
379
372
402
420
424
364
297
265
268
299
316
333
342
347
385
384
400
416
423
405
398
402
390
499
321
369
357
348
352
342
359
385
395
395
393
369
347
325
313
312
301
297
286
272
277
285
254
262
261
251
227
516
185
265
272
268
288
298
320
338
370
356
350
321
298
305
294
296
301
297
297
313
276
309
304
298
305
286
252
530
212
247
251
260
260
271
286
295
300
294
287
253
232
219
223
215
222
221
210
222
208
207
220
193
184
182
202
178
449
148
198
210
212
220
212
220
237
230
231
228
214
191
199
222
233
252
271
281
294
321
324
330
349
361
390
509
417
432
459
464
482
508
516
528
529
523
495
487
440
452
440
442
435
439
439
446
429
441
430
455
445
425
431
427
415
659
360
420
435
408
438
445
414
455
437
441
435
375
344
337
302
301
300
298
272
266
277
281
250
238
225
221
184
441
170
241
264
255
272
289
276
288
300
277
280
243
244
231
235
239
245
254
264
261
278
283
292
294
314
309
539
265
345
345
349
344
367
392
395
417
430
414
392
376
384
400
406
428
436
425
436
429
427
436
446
465
491
455
631
442
497
488
487
487
485
482
490
491
475
470
455
428
382
400
383
386
376
375
353
362
352
331
299
289
266
411
222
265
255
276
275
265
287
274
290
293
289
277
257
261
255
267
252
277
288
266
281
282
272
293
268
257
266
237
374
196
252
261
245
258
240
242
294
296
324
309
286
247
272
311
294
305
353
330
328
397
309
391
361
352
313
539
281
297
272
274
289
223
256
316
280
293
316
268
270
273
274
276
277
352
239
329
284
341
313
322
326
305
353
319
335
294
324
356
349
358
407
392
422
412
398
397
356
350
383
383
396
367
369
402
408
386
388
370
358
384
471
350
321
401
393
385
417
315
355
336
337
330
299
280
242
227
277
272
276
308
308
309
344
287
305
294
525
237
322
312
315
325
314
317
318
300
323
243
239
188
173
146
140
122
106
115
104
134
142
134
151
160
179
294
180
233
197
270
276
279
312
335
356
336
323
307
320
261
307
314
324
336
334
325
370
394
310
322
335
579
270
406
400
389
428
439
437
444
419
463
459
400
381
359
358
395
344
370
407
405
416
439
427
446
410
657
376
448
441
432
466
467
490
513
519
539
537
507
517
487
491
497
463
480
485
486
459
453
457
448
467
461
438
409
418
408
418
408
413
425
443
412
387
352
321
300
307
291
282
273
270
262
262
246
232
235
198
409
141
240
237
262
262
276
282
308
301
304
301
271
256
240
261
236
246
264
239
262
281
260
264
276
265
256
508
208
286
286
273
296
302
315
324
320
322
320
277
265
263
237
251
263
245
251
267
264
260
261
269
235
503
210
258
271
293
301
319
335
356
372
367
364
358
332
338
347
351
369
375
384
385
391
405
390
394
406
381
561
341
405
407
414
414
415
424
439
438
444
434
408
376
373
363
352
353
340
345
357
337
314
306
309
283
439
212
275
270
254
269
258
260
270
288
264
269
249
233
237
252
252
268
281
264
268
255
265
287
269
260
263
250
239
474
204
285
282
293
302
316
350
322
346
341
335
309
293
280
277
270
266
281
268
284
283
310
319
321
325
331
310
553
317
336
344
341
370
381
416
425
416
411
383
365
362
353
353
372
388
360
368
402
341
339
330
362
326
377
405
383
391
423
393
423
425
448
423
433
440
399
372
374
367
355
365
367
356
336
347
309
317
279
300
321
369
277
278
318
252
317
348
328
351
357
364
373
310
295
262
271
288
290
287
325
369
353
409
392
407
503
480
662
458
511
491
479
455
452
409
451
420
410
395
352
324
309
296
289
280
286
275
254
254
243
230
251
226
218
221
189
160
403
130
193
194
209
219
213
247
253
274
294
291
288
254
255
271
270
288
304
316
305
305
312
316
323
301
311
300
299
333
350
308
315
327
330
336
362
376
393
417
416
411
383
399
380
385
379
392
368
376
365
381
346
349
336
352
332
622
310
366
374
377
369
372
385
396
406
400
395
354
331
333
331
314
324
324
302
320
324
341
326
325
334
315
308
478
311
312
312
319
316
312
330
332
336
333
306
271
259
253
251
259
254
252
264
277
265
295
279
298
278
290
265
477
248
287
307
291
304
310
324
341
352
367
331
327
295
292
284
288
290
286
297
295
287
281
274
271
269
299
299
257
257
261
276
292
305
331
358
363
366
365
343
337
341
344
348
347
354
349
359
364
363
358
361
376
362
589
353
383
399
388
408
405
418
461
442
453
462
464
463
449
434
448
411
435
400
403
432
378
364
366
352
324
597
293
360
350
357
359
353
352
344
333
303
282
257
209
200
187
211
166
200
117
169
173
100
159
173
199
207
227
450
239
295
320
344
369
399
401
413
412
411
416
389
381
388
373
392
397
396
383
408
401
385
381
361
360
356
457
292
297
278
266
244
208
194
173
144
143
113
92
0
0
0
0
6
36
71
102
100
128
154
172
181
346
142
172
159
152
154
165
170
165
151
142
144
135
131
147
164
178
183
225
294
364
403
438
455
459
428
660
317
378
342
353
362
376
393
417
425
423
396
364
333
331
336
338
356
354
375
412
378
426
494
547
569
578
603
649
663
615
620
616
613
612
597
584
562
526
491
446
391
358
331
315
308
303
308
317
310
311
314
318
304
309
314
319
335
416
300
314
318
310
314
309
309
309
302
296
275
242
230
237
239
249
250
257
256
258
261
260
249
253
256
268
326
325
302
319
343
362
378
395
417
424
431
457
470
479
486
500
532
557
556
625
598
513
662
662
662
661
641
605
664
645
588
630
522
470
349
357
239
227
241
166
133
124
163
135
138
139
156
155
152
174
196
205
196
214
234
227
460
240
312
336
347
332
313
316
330
343
333
337
322
284
262
241
236
245
263
290
313
332
339
327
291
298
295
277
276
279
272
384
249
305
309
317
316
320
329
337
346
352
357
341
314
297
288
284
281
275
276
278
280
291
307
302
300
308
313
294
528
234
318
306
299
294
298
307
311
309
312
301
280
257
247
228
233
245
257
275
288
301
312
321
310
311
310
310
351
356
293
293
290
298
301
311
322
322
314
300
283
249
227
225
230
231
235
240
248
252
250
258
278
266
255
267
275
275
570
265
332
348
371
398
429
455
480
497
502
489
451
420
399
386
381
399
411
399
344
326
327
329
303
288
276
266
365
251
301
314
324
337
360
378
400
413
424
423
411
376
361
356
355
345
350
352
354
372
375
389
377
392
419
440
470
564
423
431
443
454
439
443
431
421
384
371
357
334
299
283
265
248
235
229
221
223
229
207
201
208
211
207
375
197
217
237
250
278
299
335
361
400
429
447
443
444
455
474
488
504
511
505
502
508
487
442
425
391
327
596
259
302
287
285
276
273
275
278
285
284
278
263
242
239
244
247
252
261
275
292
303
309
301
378
438
452
660
504
533
555
563
581
579
584
551
549
539
526
475
448
417
393
386
363
352
350
340
324
300
289
280
241
477
149
205
180
181
166
165
171
186
172
185
172
145
138
125
143
151
167
181
200
229
230
228
242
253
249
544
242
315
339
362
354
362
372
383
382
382
366
340
326
322
312
320
320
310
333
339
325
317
315
314
292
540
257
291
294
296
306
318
339
357
375
408
425
401
447
553
545
369
368
400
428
442
471
516
530
543
552
547
527
661
466
462
460
448
451
442
433
425
413
400
374
329
299
286
273
261
250
236
224
219
226
224
218
216
213
214
277
245
242
254
267
268
289
308
310
316
316
312
295
267
252
240
234
231
230
242
266
267
263
276
279
269
384
249
285
286
292
294
303
311
322
314
306
299
274
254
250
242
253
262
279
288
317
344
342
357
370
382
382
584
380
404
413
416
424
432
447
458
462
458
441
405
386
381
374
372
372
371
371
367
367
379
357
350
347
343
322
587
306
338
345
346
354
361
379
388
387
388
374
335
312
299
283
276
272
262
259
263
277
271
269
281
338
398
644
501
664
664
664
664
662
575
497
549
662
663
665
665
665
665
665
665
665
665
665
664
661
563
516
457
554
351
336
301
270
243
229
207
186
182
162
160
126
86
89
76
74
82
78
77
77
81
88
81
84
104
94
258
77
125
126
13
