339
333
337
341
339
343
360
345
345
347
344
317
613
296
340
342
347
349
361
368
377
382
379
373
349
314
317
317
311
328
297
314
321
316
321
320
352
317
329
310
327
320
433
302
305
316
316
305
315
326
326
330
333
317
294
269
254
255
261
250
265
264
266
275
289
249
263
263
256
343
270
274
293
300
310
312
328
332
343
362
347
334
319
302
306
308
307
310
319
323
328
343
336
323
317
333
297
576
239
340
346
336
363
384
384
407
414
420
417
381
376
362
353
359
345
359
364
351
358
373
370
355
342
346
317
589
247
335
342
340
340
345
360
368
376
371
374
335
318
312
298
308
319
314
315
325
313
324
327
312
304
316
295
436
251
319
314
323
328
322
341
357
363
360
365
353
321
303
311
303
318
314
318
318
335
336
318
305
314
313
336
347
301
301
311
309
306
323
322
337
331
330
311
279
272
276
278
282
284
302
295
321
317
320
297
316
288
482
211
310
309
318
316
321
331
340
360
364
353
330
303
297
300
301
294
300
313
301
312
319
316
312
312
313
291
606
256
308
317
335
337
336
349
351
364
363
351
300
287
268
280
271
286
285
294
308
297
315
341
316
313
318
325
298
596
293
336
332
368
360
393
392
413
425
429
427
402
377
376
374
373
378
375
380
385
386
394
406
395
379
376
378
357
649
332
363
366
374
380
378
388
399
405
398
391
350
330
324
322
315
307
321
316
318
314
337
321
313
316
323
295
592
275
318
323
326
319
336
330
345
352
345
342
302
293
283
283
281
281
292
290
294
296
280
283
293
256
386
211
276
262
267
266
265
279
293
296
303
286
278
256
244
247
248
253
243
252
268
271
253
267
270
280
352
286
293
310
316
325
340
350
358
376
382
374
365
332
331
318
327
338
330
343
356
373
370
352
370
368
350
599
288
374
380
383
396
397
410
411
431
419
409
379
365
341
341
341
347
351
336
335
340
345
346
330
325
330
310
440
274
349
340
344
349
354
348
354
365
347
337
311
292
264
243
262
239
235
241
238
247
237
235
232
237
211
447
147
260
270
281
283
297
315
324
332
345
329
328
285
276
295
293
292
304
309
313
319
323
309
310
325
297
540
234
330
338
328
343
359
369
385
384
405
385
374
343
342
346
350
344
362
363
367
379
371
388
362
368
373
374
352
586
346
381
380
396
399
401
426
418
432
433
409
384
360
357
344
359
336
369
334
344
355
348
333
337
336
333
375
341
334
325
333
352
336
353
348
364
358
364
345
312
294
283
286
297
312
324
328
340
341
311
326
304
308
331
328
272
262
263
265
251
262
290
285
291
292
269
254
252
240
236
247
252
255
259
260
291
280
284
285
283
287
344
325
308
302
312
318
332
347
366
370
386
383
379
339
335
326
325
333
341
326
337
338
335
350
335
328
331
322
303
587
240
331
340
336
344
357
360
381
391
382
383
356
345
333
326
343
350
340
355
357
356
370
387
368
369
368
372
358
554
342
371
381
388
386
401
431
418
440
442
433
404
373
365
360
372
348
356
351
351
356
336
325
317
313
300
495
258
306
305
306
307
295
309
318
307
296
288
265
245
238
242
244
249
245
254
260
275
257
261
251
262
236
551
181
274
283
276
288
301
316
331
344
333
332
316
292
284
299
300
308
303
315
315
342
328
321
334
325
312
487
245
345
333
339
354
358
360
389
392
390
396
383
346
341
344
338
346
348
347
349
362
368
352
341
356
349
323
624
289
345
362
363
376
378
391
405
399
411
404
382
356
344
361
379
361
369
378
379
393
360
348
339
334
305
579
220
321
302
299
309
299
315
328
314
312
313
281
268
247
254
253
263
257
269
285
268
253
267
270
239
511
212
261
273
287
276
299
313
320
327
334
323
293
294
277
290
293
288
304
318
322
335
328
330
341
327
453
304
364
373
376
390
391
416
416
428
421
424
398
369
355
351
341
352
358
363
376
360
358
331
335
319
541
228
336
331
338
344
342
349
367
368
369
359
340
314
316
320
310
314
328
322
319
341
324
315
309
313
308
384
290
308
304
305
312
319
325
346
361
372
360
333
310
312
297
309
312
305
326
326
336
326
346
344
342
401
399
371
384
388
387
400
414
423
425
424
418
393
374
351
355
341
350
359
362
357
346
333
301
316
379
327
346
343
343
351
350
360
365
379
373
373
345
328
317
316
310
325
334
350
349
333
340
338
319
609
272
333
344
347
351
348
367
367
374
379
344
321
306
310
302
298
298
300
310
305
291
296
291
282
391
238
288
280
285
288
302
310
327
341
340
338
309
287
272
280
288
292
293
299
304
321
302
296
290
288
265
554
207
294
298
299
301
303
314
333
334
339
329
306
287
275
276
277
275
277
284
297
297
298
298
306
306
314
479
298
329
351
348
358
376
387
402
409
404
381
361
346
344
353
349
356
364
370
367
372
397
383
388
394
398
385
606
367
396
402
399
397
414
408
418
422
429
394
372
342
340
336
342
330
342
336
346
323
321
315
314
297
535
263
307
313
307
305
322
334
333
344
331
319
295
279
276
274
276
280
286
287
299
305
299
298
299
302
296
477
282
318
316
326
332
338
348
363
373
359
349
317
302
318
315
323
328
340
358
350
358
388
372
363
362
364
337
608
245
352
348
357
350
355
363
371
373
375
370
336
318
318
306
311
312
316
319
329
328
313
311
307
309
450
235
337
334
334
329
332
374
345
372
381
391
362
328
336
340
343
349
367
392
384
408
398
398
381
395
369
555
287
370
373
368
370
376
362
376
374
373
368
340
312
291
298
284
287
295
299
279
296
290
292
298
286
292
275
485
199
291
293
305
314
303
324
343
347
348
352
340
295
303
292
292
294
313
305
307
317
330
314
307
323
314
375
308
332
313
318
330
335
344
353
358
371
363
343
320
303
302
309
300
309
313
314
324
325
317
309
305
310
367
322
308
308
320
314
330
344
350
349
361
362
329
301
307
285
291
309
306
320
305
324
305
343
341
328
344
334
351
319
602
303
344
356
357
364
366
381
389
393
392
375
356
328
320
313
324
319
319
321
311
317
325
309
305
294
302
278
563
233
301
303
306
320
322
340
346
356
358
336
331
307
303
301
307
314
306
313
309
308
317
326
303
301
308
296
336
337
289
293
294
310
317
321
336
353
338
343
301
291
273
274
261
269
292
271
279
279
284
303
290
283
284
288
267
548
213
306
300
306
321
328
345
350
381
362
356
338
314
316
317
333
352
339
350
355
352
355
361
366
366
372
352
364
355
473
304
364
358
368
362
366
376
377
402
391
406
361
340
329
318
307
313
310
293
295
304
310
266
258
253
232
295
255
252
260
261
276
290
297
310
333
336
349
306
296
287
300
295
286
302
310
307
317
332
341
338
336
345
347
334
559
333
350
357
376
378
394
409
416
431
437
415
388
369
358
364
369
375
369
381
380
368
390
384
372
373
373
347
529
279
373
364
361
368
383
383
398
406
405
392
367
339
332
330
317
330
326
326
326
334
327
336
345
333
327
337
329
408
317
350
342
341
360
355
362
376
383
390
390
370
351
331
333
328
328
342
335
330
336
322
358
341
304
327
313
288
507
261
303
299
304
306
310
321
333
326
325
314
279
261
258
247
263
265
269
266
281
283
277
265
266
267
344
212
263
246
253
263
270
284
294
322
328
322
308
288
287
286
296
301
309
323
315
327
349
351
342
337
346
322
605
263
362
355
368
370
370
390
408
408
407
410
379
354
348
348
362
349
359
365
370
378
377
397
392
377
386
379
359
524
293
372
363
362
379
376
386
392
395
397
391
370
331
313
314
306
322
312
312
315
328
319
299
306
298
296
357
279
308
302
313
314
325
328
345
354
350
348
324
294
283
275
278
280
290
292
299
295
300
303
321
322
294
315
311
292
566
227
310
324
327
327
340
339
369
365
371
364
342
298
309
302
310
312
317
320
327
330
344
344
359
377
374
359
369
365
350
637
290
364
376
367
374
375
385
394
400
402
393
367
340
318
314
316
311
316
316
314
316
310
323
303
308
283
289
283
480
246
288
297
276
289
296
306
311
316
322
303
285
266
267
259
274
279
284
283
293
289
304
315
319
305
307
313
305
442
265
328
322
326
335
342
354
359
371
374
373
349
321
315
313
320
322
338
332
342
346
348
357
374
358
342
346
352
324
613
275
346
352
341
351
359
360
371
380
358
362
327
309
292
286
293
290
301
295
288
296
305
289
282
285
286
303
387
276
298
293
301
312
323
341
350
350
355
340
305
295
297
289
298
303
311
315
317
320
325
349
331
321
330
334
337
461
324
333
340
349
353
360
375
387
389
396
380
347
334
342
337
346
354
356
357
360
356
353
376
366
361
349
354
341
569
314
351
345
349
351
354
369
356
371
372
359
328
308
298
300
296
295
302
296
292
319
301
291
299
292
273
572
210
307
313
309
319
339
341
351
363
372
351
324
306
300
297
302
302
306
312
312
309
313
325
314
300
310
314
293
577
273
312
318
326
321
325
332
334
336
331
322
288
271
270
268
274
281
287
293
303
308
321
322
313
314
315
305
437
256
323
322
324
326
333
340
356
366
371
371
348
321
310
310
312
317
319
329
328
333
350
342
329
329
334
309
541
252
348
348
359
368
375
390
403
413
414
412
385
357
350
318
317
319
328
329
332
332
334
342
364
349
350
347
351
327
639
286
348
350
350
350
356
361
364
369
368
361
327
300
295
299
297
301
301
307
303
299
304
317
304
295
292
294
265
555
205
291
286
287
290
299
304
318
326
327
320
296
272
269
267
272
277
291
294
291
304
318
303
301
307
311
317
476
298
330
328
341
348
362
383
390
381
393
373
333
323
322
319
325
333
340
349
351
354
368
366
359
359
364
346
629
284
368
368
376
378
386
393
405
409
408
395
358
332
321
318
321
328
329
336
335
345
353
350
339
339
341
321
612
280
352
344
354
354
359
367
380
379
375
367
333
306
300
297
297
301
300
301
297
310
309
292
286
282
274
350
250
289
297
307
314
323
338
348
366
368
367
349
325
316
314
320
326
333
335
343
345
345
344
352
371
351
345
349
343
368
418
337
339
344
348
356
357
370
385
393
396
384
358
337
331
339
336
343
345
341
343
348
358
352
340
338
340
327
452
272
339
335
340
342
348
350
365
369
369
362
344
311
304
297
295
301
304
306
309
311
325
332
321
325
337
336
401
335
343
343
346
351
358
363
371
382
387
369
350
317
300
294
294
298
301
307
307
311
305
314
329
321
312
315
321
294
574
239
330
330
338
337
356
365
378
391
396
394
366
340
331
330
332
334
334
337
333
337
346
344
321
324
322
329
395
316
319
333
318
338
347
362
349
385
378
398
371
330
324
336
319
321
335
349
347
354
349
348
345
344
345
326
373
356
333
319
321
321
311
325
329
346
347
333
322
287
276
277
276
272
287
282
281
291
296
299
293
323
306
296
270
282
273
502
185
304
305
316
311
320
327
341
356
362
353
340
312
298
289
296
307
298
310
307
300
303
321
323
308
308
320
315
372
327
316
320
325
330
331
362
358
367
368
379
353
340
320
308
297
308
318
313
315
310
312
338
309
302
314
312
280
574
220
325
321
326
339
332
347
357
370
380
361
341
324
290
310
324
335
328
346
360
348
371
352
364
366
367
335
399
343
384
476
382
420
426
426
451
441
451
457
472
471
444
406
393
392
419
341
369
388
379
369
382
367
408
347
354
359
352
336
473
263
343
327
327
330
322
328
324
343
340
324
319
277
247
247
255
256
264
266
272
276
280
281
264
248
253
213
486
153
244
230
253
253
262
283
272
281
287
282
247
223
217
211
209
213
220
209
220
227
235
235
260
251
249
255
263
256
495
247
280
286
296
310
326
344
358
371
384
377
355
337
335
341
352
357
363
366
364
364
369
377
376
361
362
362
354
441
323
358
357
359
359
361
367
380
388
389
391
369
345
327
332
337
336
335
330
325
318
320
320
302
302
307
307
324
415
306
322
329
335
341
353
366
378
386
387
375
345
335
333
336
340
346
351
355
349
355
368
373
360
362
365
356
494
302
376
373
374
374
377
383
392
400
399
394
366
331
319
316
313
314
318
320
323
326
326
326
327
345
327
323
321
325
310
532
295
321
324
330
335
347
360
369
384
382
373
338
325
312
317
313
315
314
313
308
307
314
329
312
309
308
312
302
529
276
317
319
323
328
343
348
356
363
366
353
321
296
282
274
267
265
256
259
255
254
265
255
242
243
247
227
439
157
257
266
270
279
287
298
312
321
330
332
307
287
279
280
283
293
303
310
313
317
327
349
337
334
333
338
318
628
274
352
354
359
369
378
386
404
413
417
410
382
358
350
351
352
354
364
366
367
372
375
392
381
376
380
389
384
651
380
428
436
443
454
453
470
472
474
466
452
413
392
379
376
371
367
362
364
357
369
369
359
347
342
344
314
580
243
335
329
333
336
342
348
353
356
353
344
317
284
276
266
265
268
269
262
277
281
258
261
254
260
245
513
204
272
272
275
276
289
302
305
310
315
303
272
257
248
252
259
266
267
277
274
295
294
290
297
296
286
426
241
327
334
340
321
328
336
343
353
344
337
316
285
286
282
288
289
295
298
325
312
338
330
358
385
502
389
444
442
451
464
459
475
476
484
500
473
453
423
423
412
421
403
407
402
384
409
386
360
359
359
345
449
294
350
333
335
334
333
341
355
344
359
337
321
293
269
267
278
275
285
269
270
294
294
276
272
277
270
352
238
289
271
274
283
291
294
310
317
320
315
302
283
262
269
277
262
272
286
273
277
288
293
287
296
296
300
292
407
286
313
314
319
332
342
368
382
382
394
364
347
341
309
333
330
312
337
337
340
366
333
339
325
329
315
579
264
351
339
341
328
340
357
368
361
368
342
324
304
289
285
311
283
288
290
305
300
273
274
292
258
528
193
278
296
287
316
315
337
368
369
380
366
356
348
332
354
371
370
380
386
406
397
398
405
394
389
375
636
346
419
414
390
402
425
420
414
424
420
388
371
360
336
345
346
357
352
347
339
359
357
347
328
313
339
316
439
255
339
315
320
325
331
339
351
374
360
377
345
318
296
303
295
292
296
306
297
310
327
311
297
301
300
254
533
168
277
281
271
279
290
298
302
325
329
317
304
279
289
274
298
285
300
285
304
334
337
322
310
315
331
312
558
279
331
340
333
343
332
368
368
374
383
366
330
316
325
296
312
319
311
319
313
333
327
316
302
310
312
326
367
309
318
331
325
336
343
360
366
361
364
355
312
309
301
305
307
307
315
309
306
319
316
315
309
307
286
554
232
300
304
308
309
323
327
340
344
349
348
320
295
295
296
296
295
294
300
308
308
324
324
324
335
355
335
577
262
363
364
359
368
382
367
383
410
370
386
356
320
326
328
331
330
359
330
367
369
365
348
359
361
369
469
340
348
354
359
362
348
364
380
414
367
330
317
300
285
287
281
282
282
282
279
285
276
260
253
250
222
494
172
220
224
232
259
273
292
287
285
257
108
79
91
118
144
166
194
212
253
304
317
310
310
322
321
575
271
378
359
403
409
399
429
438
469
451
500
520
492
495
513
515
525
518
520
529
502
476
433
451
394
650
272
348
344
326
325
323
315
319
313
314
304
269
250
256
243
259
273
268
279
276
297
304
293
289
295
304
324
410
302
312
309
317
315
333
349
357
362
371
355
339
313
320
329
311
315
329
317
317
330
326
313
311
316
311
308
539
285
325
332
324
339
347
365
364
364
375
362
348
324
322
331
341
342
348
345
345
351
359
342
332
347
340
325
581
276
331
329
324
323
326
346
336
361
358
343
314
293
274
284
273
266
271
267
278
273
260
254
248
244
403
182
258
270
263
263
275
284
301
302
315
308
295
261
265
254
269
269
279
287
281
298
312
302
312
321
325
323
471
313
342
328
351
362
364
380
403
413
413
409
387
378
365
369
376
376
393
381
396
401
388
393
383
381
461
374
385
380
385
384
386
397
401
409
408
413
385
363
353
346
345
339
343
341
339
356
331
326
324
315
301
584
221
316
330
324
322
337
341
340
362
355
343
314
301
285
290
293
289
295
298
297
297
313
314
290
300
302
285
440
228
308
304
313
307
324
340
339
358
364
367
342
318
308
316
305
330
332
335
336
340
343
359
355
342
343
340
333
468
272
356
351
358
356
371
372
387
383
400
387
367
348
319
322
324
314
319
316
320
333
318
302
302
301
285
387
237
299
291
287
307
309
311
322
335
338
328
309
283
272
270
267
271
276
282
291
269
285
292
283
284
292
282
423
236
314
307
302
316
327
334
349
368
369
371
352
332
317
322
319
326
325
325
330
334
338
333
325
321
326
298
575
223
325
325
332
330
341
347
367
375
385
383
365
346
340
347
353
339
348
357
367
376
366
357
357
359
340
622
277
357
363
362
368
383
387
404
402
402
383
350
324
317
314
308
310
309
308
309
302
312
298
299
295
298
288
524
259
296
301
311
321
336
343
356
366
378
362
336
331
322
331
331
334
337
342
336
345
338
318
305
323
303
568
258
331
330
329
328
339
347
354
333
305
281
269
248
266
263
278
289
313
313
311
319
332
324
311
310
317
311
540
294
332
325
331
335
352
363
379
382
390
373
347
325
325
326
330
320
323
329
332
339
337
328
326
325
313
606
267
350
348
347
362
364
367
379
375
385
375
339
322
319
323
325
321
336
326
329
335
341
329
328
322
317
431
268
327
333
328
331
342
351
353
366
377
371
357
326
305
299
304
308
307
314
327
324
309
292
300
288
291
445
217
309
307
314
313
331
328
337
348
353
343
318
295
291
288
297
294
297
308
305
304
325
320
308
305
315
292
540
221
308
310
308
316
325
328
336
356
352
352
327
305
300
303
313
321
336
354
365
375
408
432
414
418
425
405
393
499
318
311
282
265
261
239
237
257
248
263
256
212
205
195
203
218
264
287
335
405
422
447
473
493
493
661
429
482
486
483
491
518
535
567
575
578
562
518
483
483
455
448
429
426
419
424
407
384
381
371
347
412
347
334
323
318
319
312
311
330
324
317
302
278
250
213
212
208
208
195
204
203
213
201
201
213
199
199
242
275
210
214
222
225
242
259
275
304
304
298
292
256
254
259
256
270
279
281
288
301
313
329
316
322
329
333
324
509
280
357
348
360
364
374
383
402
408
413
416
395
368
356
376
341
362
362
353
361
376
360
355
361
363
331
629
265
347
355
360
358
365
367
374
379
378
367
331
305
297
290
281
284
286
288
272
295
286
274
277
282
273
425
225
294
286
292
299
309
318
341
328
339
340
325
289
291
295
302
305
313
332
339
344
347
360
370
357
356
354
342
543
268
365
363
367
368
381
388
409
410
421
411
381
339
324
318
324
312
319
313
309
310
322
306
295
290
295
263
569
209
294
289
293
303
304
315
325
333
338
328
301
285
284
282
284
289
292
296
298
304
309
332
323
324
326
332
308
608
258
340
338
347
353
379
388
396
396
402
402
371
353
356
361
362
372
368
377
379
382
382
395
423
431
428
431
430
436
421
561
375
393
380
375
370
356
355
357
354
343
314
290
263
249
254
259
258
261
260
277
283
262
270
266
272
282
431
260
288
298
303
302
313
324
336
337
342
327
290
283
270
275
280
283
292
291
298
315
310
301
302
308
290
491
235
329
330
338
344
357
374
382
400
405
405
385
356
348
348
357
360
352
362
359
352
359
345
333
323
326
298
523
209
313
321
324
328
335
346
361
373
369
369
345
330
300
297
305
321
337
338
335
351
330
306
300
291
262
481
181
291
293
294
298
307
318
331
339
352
362
351
316
277
264
279
301
304
288
284
295
293
301
310
325
293
621
243
307
308
322
317
329
347
360
384
387
369
364
349
340
340
361
357
354
368
361
352
363
380
362
346
351
347
331
599
292
335
332
326
324
340
348
339
352
349
341
312
299
291
293
295
299
308
319
312
359
355
325
322
305
281
487
195
294
289
294
302
313
320
313
315
304
289
252
218
204
201
213
223
240
252
268
291
303
295
292
303
288
436
228
301
300
317
333
364
402
432
460
474
474
455
418
402
404
389
356
394
427
389
438
494
439
459
451
493
484
660
492
504
515
499
489
491
495
461
474
519
418
409
390
389
401
378
358
365
347
351
312
283
276
245
195
437
110
188
199
200
215
209
212
209
218
209
211
186
168
174
174
190
184
196
205
217
245
262
251
237
230
228
231
387
193
207
217
220
228
237
249
261
265
275
266
231
223
229
226
234
235
244
241
247
256
274
276
270
278
297
299
584
304
362
375
386
407
408
437
451
467
464
465
443
416
406
403
415
416
405
416
421
420
429
446
408
392
389
377
361
592
338
371
374
369
375
380
388
393
395
395
384
355
337
332
330
332
334
340
343
347
362
385
374
374
376
381
358
628
294
338
332
320
318
327
340
352
361
362
355
328
309
301
299
309
312
308
314
330
326
309
303
307
304
339
349
302
313
321
327
332
340
347
358
359
358
345
322
308
301
300
304
305
312
316
328
314
302
299
299
276
572
207
304
304
305
305
307
311
322
323
321
313
286
266
260
262
268
271
272
273
271
272
276
287
304
306
305
315
318
304
495
237
328
326
333
338
348
359
370
378
381
380
361
340
331
329
334
336
339
341
343
345
346
350
350
359
370
367
357
356
359
346
480
292
360
357
363
367
377
382
396
405
408
409
391
366
353
348
351
351
359
360
360
362
356
357
356
357
363
381
361
357
359
360
343
588
310
361
362
359
363
369
379
383
389
388
384
355
332
319
315
317
320
322
322
322
319
319
321
326
342
325
316
321
321
311
550
274
326
326
331
334
340
349
359
363
364
356
328
306
295
296
299
302
307
307
307
309
309
308
309
314
323
324
308
308
312
302
427
257
316
314
320
322
329
335
348
356
360
358
343
312
296
295
294
299
303
309
307
307
311
310
312
313
315
315
319
329
338
326
326
328
313
487
257
339
338
343
348
355
364
377
386
391
392
377
351
331
331
330
337
338
340
336
334
331
326
324
318
319
323
335
319
312
314
316
334
380
300
312
309
319
322
330
344
356
357
360
351
324
302
291
294
296
298
301
304
307
309
312
317
337
318
314
315
318
331
430
304
325
324
330
334
345
360
372
376
380
363
338
317
311
309
312
315
317
318
320
318
329
349
335
327
328
333
306
609
243
322
323
325
330
340
351
363
372
373
369
340
316
308
308
310
314
318
322
329
333
339
346
353
340
338
339
336
412
330
341
340
347
353
358
370
382
394
396
401
388
355
329
320
319
319
321
324
337
334
336
348
325
311
311
307
284
568
257
357
349
345
347
345
347
355
362
361
357
336
309
294
294
297
300
303
304
303
298
313
311
297
297
297
287
426
229
304
302
305
313
321
332
345
356
361
359
340
310
297
296
295
296
300
305
312
316
316
318
321
329
337
322
320
324
325
366
384
326
330
335
337
343
348
365
380
385
386
375
347
330
326
324
326
330
333
335
339
342
341
339
340
346
364
349
338
344
341
323
612
266
339
341
343
345
352
354
367
370
374
369
351
323
310
305
301
305
304
305
305
304
305
307
315
287
274
278
279
275
451
236
278
285
289
296
303
312
323
329
330
323
297
274
271
272
274
273
277
283
294
299
310
323
305
307
311
313
346
393
311
322
323
332
339
348
363
380
387
389
377
345
323
317
320
324
323
324
324
323
323
323
331
350
336
332
339
342
326
618
275
342
346
348
355
361
368
379
385
383
377
351
329
324
321
330
337
348
354
355
354
352
355
368
348
337
344
343
320
605
249
339
338
341
345
350
358
368
380
382
377
356
332
321
320
326
325
325
324
323
325
339
330
320
315
323
299
577
225
319
313
342
321
346
357
373
394
394
394
379
357
353
379
374
382
397
407
401
396
400
403
395
387
377
378
399
440
352
353
356
350
351
351
355
355
351
350
324
296
271
274
269
274
278
273
274
280
273
268
275
272
261
260
250
249
301
294
259
260
268
271
276
290
307
322
335
346
341
313
309
300
308
312
312
316
321
329
333
333
343
360
339
342
347
355
358
480
331
354
354
357
369
369
379
386
389
389
381
355
339
329
328
333
334
337
335
334
333
350
349
336
334
343
332
462
270
349
351
354
376
382
392
407
416
421
415
399
372
352
347
347
348
349
351
349
349
349
346
343
343
350
348
332
329
327
313
439
251
319
317
321
327
331
339
347
356
358
359
345
313
295
290
291
296
297
303
304
304
309
307
310
312
319
336
323
328
333
335
354
407
322
328
330
338
343
347
356
369
372
367
355
327
303
293
295
292
292
295
292
295
297
293
301
315
295
293
294
296
293
495
257
302
309
311
318
322
334
343
353
351
347
325
301
291
293
295
298
303
309
315
314
317
332
333
321
323
328
317
453
262
333
331
338
344
350
360
371
383
383
381
366
335
318
315
311
314
316
322
324
326
321
318
310
316
294
283
281
280
271
507
237
282
293
300
311
328
351
374
389
389
391
366
336
326
327
325
324
329
327
325
342
340
326
328
336
328
501
261
359
355
348
344
353
360
363
366
366
360
331
303
289
286
282
287
298
289
277
305
260
215
201
212
239
249
304
230
258
274
280
300
308
314
338
344
349
351
326
325
326
327
337
349
353
364
369
364
368
340
347
345
325
602
263
337
340
344
363
368
388
425
442
444
434
401
370
350
342
324
315
300
304
290
291
304
297
298
293
297
272
484
223
280
278
278
276
281
292
303
310
312
317
293
265
249
244
239
243
256
281
313
338
352
374
402
425
577
449
515
531
544
551
558
566
586
600
606
626
604
597
581
579
587
594
610
578
571
552
523
516
506
520
598
457
458
453
445
446
453
449
439
413
377
332
252
206
174
169
158
162
158
164
175
154
130
106
109
99
202
76
76
94
128
147
172
207
243
265
282
274
257
247
249
257
262
269
278
296
298
263
273
278
241
496
178
245
247
244
248
246
250
268
278
285
283
264
239
232
240
246
259
275
278
289
301
289
284
295
303
294
512
281
311
317
324
333
340
354
374
372
375
366
337
323
315
321
322
331
326
333
340
323
315
320
322
296
545
207
282
283
276
284
284
288
292
296
294
293
264
246
243
248
248
261
274
290
292
280
288
306
297
406
261
308
311
323
333
339
354
370
385
391
399
378
367
354
361
367
373
382
402
391
382
385
389
360
641
279
359
339
332
293
270
260
259
259
257
257
232
226
213
214
245
260
283
270
240
242
254
249
333
225
268
271
214
229
241
255
272
282
286
296
296
266
269
280
293
302
306
322
341
335
328
330
340
318
576
233
352
346
359
371
370
379
393
399
399
395
371
324
312
311
316
324
325
328
334
329
335
340
347
360
361
352
355
357
346
452
306
361
357
365
380
374
378
387
399
398
395
381
346
325
316
324
331
346
348
353
366
363
371
387
386
371
367
368
366
432
334
363
357
358
365
366
364
373
371
360
354
320
283
257
240
233
228
223
230
231
239
253
261
251
252
257
240
274
253
222
205
200
195
186
169
141
119
91
75
69
61
56
78
95
122
151
183
204
228
265
273
281
309
309
297
612
262
382
418
435
462
478
467
492
280
276
267
250
234
238
248
252
265
285
294
308
316
326
343
354
362
355
357
369
359
549
286
388
389
397
407
407
415
430
438
434
437
411
385
378
371
378
379
388
391
396
397
402
401
407
411
431
414
410
412
411
427
490
390
394
392
395
400
383
402
406
408
390
375
347
318
317
317
320
323
332
329
329
331
345
330
305
310
310
294
516
211
318
311
308
312
317
330
338
348
352
352
326
301
290
306
302
307
317
321
333
340
354
354
337
342
353
333
492
266
357
353
352
362
363
364
378
382
385
371
346
314
299
288
289
289
297
293
291
295
296
292
297
317
298
293
301
292
305
418
284
305
305
320
337
344
357
372
379
376
374
351
331
328
327
329
340
341
340
337
333
339
341
344
329
328
324
324
377
326
328
321
326
332
333
337
352
369
354
357
345
320
295
291
292
301
299
302
308
309
328
313
304
307
307
291
553
247
319
323
328
338
339
355
363
369
370
368
328
320
309
301
310
319
328
340
373
371
384
376
363
356
355
327
620
261
351
346
356
360
356
364
377
378
382
379
346
324
311
305
302
301
308
305
308
315
305
325
332
307
299
300
283
258
560
229
325
320
337
337
316
294
305
309
323
322
299
257
241
241
236
247
246
253
260
275
294
310
293
285
290
292
288
498
255
309
322
331
340
353
366
374
382
392
379
348
330
319
313
321
318
322
316
312
322
305
278
280
273
249
447
165
278
278
286
291
288
300
315
320
321
317
298
272
262
268
268
268
275
282
286
284
289
294
313
305
294
300
304
290
571
235
312
315
324
335
336
353
363
378
376
378
355
333
326
317
320
326
322
326
331
335
325
328
343
356
357
356
359
371
350
603
266
345
347
355
356
361
374
378
415
437
455
466
484
498
511
507
524
637
665
665
665
665
665
665
666
665
665
665
665
665
665
665
665
664
663
659
605
568
524
474
410
360
349
324
293
272
249
222
208
199
176
140
124
112
100
127
123
60
77
82
86
91
101
117
134
141
137
129
96
82
83
92
96
110
122
122
131
139
158
167
164
176
192
196
321
177
241
242
248
259
269
282
294
313
324
327
313
287
277
276
287
292
296
307
305
316
313
324
324
343
342
336
333
341
319
517
261
356
351
359
367
369
383
395
405
411
410
399
361
352
345
346
350
354
357
354
355
371
375
361
362
359
357
396
378
350
356
356
365
361
365
379
391
390
388
367
337
318
312
300
305
304
303
306
304
312
319
308
303
302
296
390
263
308
306
312
320
325
339
353
363
368
371
345
315
300
295
296
299
302
302
307
307
307
304
303
320
306
301
303
306
280
579
236
304
307
308
313
326
338
366
375
383
384
357
339
326
329
324
333
340
351
341
347
356
360
343
340
341
348
375
396
338
352
356
359
359
368
382
382
394
382
372
340
318
313
307
317
319
317
319
315
321
319
300
293
280
260
465
170
271
270
275
281
285
287
307
307
319
315
299
277
272
275
291
301
304
307
306
311
305
316
318
318
314
322
306
520
237
333
328
339
353
350
371
389
399
407
404
383
354
343
343
345
350
360
352
361
364
357
364
360
371
397
384
378
381
389
378
647
348
411
408
416
412
415
417
430
439
437
409
393
363
346
334
340
336
337
347
336
344
354
340
329
330
330
302
588
239
320
320
314
318
315
329
337
337
342
341
323
308
304
303
295
308
312
310
310
322
324
305
301
298
301
312
454
292
314
317
318
313
309
321
334
328
333
313
295
268
277
273
276
265
268
261
253
241
235
232
254
243
245
247
255
237
539
185
280
289
289
297
305
311
334
333
346
345
323
299
298
303
308
319
327
337
332
341
349
363
359
350
347
352
343
463
299
365
353
368
361
370
374
388
397
393
395
382
347
332
334
329
337
344
342
349
364
365
350
343
347
340
411
312
336
332
332
337
335
344
350
361
365
364
352
321
308
306
298
304
306
313
312
317
338
343
323
323
329
315
451
272
341
329
334
336
334
340
357
362
371
373
348
320
308
305
303
313
320
324
322
328
329
337
350
337
323
321
325
298
518
225
328
324
325
329
337
344
364
370
377
375
356
333
323
323
330
333
332
330
322
319
321
332
320
307
306
300
296
378
258
293
289
291
293
296
303
318
325
331
331
317
285
271
270
267
272
272
280
279
300
297
280
289
292
274
471
207
308
309
316
325
333
340
360
366
370
367
346
320
311
311
311
324
332
336
338
337
337
355
355
349
344
343
342
434
317
353
355
359
359
359
363
374
379
387
392
373
346
336
326
330
337
336
341
342
348
342
347
367
353
346
344
347
328
598
256
350
353
355
358
368
373
390
395
392
395
366
341
327
321
326
329
334
331
332
336
353
337
331
325
325
287
524
199
309
312
324
325
322
329
338
347
348
347
324
294
280
277
281
280
283
288
293
305
296
288
287
294
272
530
185
292
290
286
296
283
80
52
53
70
73
57
42
52
26
0
0
0
0
28
32
46
72
87
100
117
136
134
435
102
217
233
249
262
281
306
324
342
348
368
358
346
346
361
365
377
379
375
368
368
371
105
0
0
0
0
0
0
0
0
0
0
0
0
0
0
0
0
42
22
17
58
100
101
84
159
212
233
288
355
406
412
442
494
506
578
655
554
614
580
636
657
649
658
661
662
663
662
646
599
576
576
561
555
534
510
497
496
475
492
470
448
442
454
483
463
423
419
412
406
417
408
433
465
473
476
472
447
417
407
402
390
410
400
391
398
387
370
376
380
381
537
323
401
393
397
404
420
449
493
651
663
664
664
664
664
663
662
651
597
567
540
515
498
466
433
403
382
348
640
265
325
304
294
280
279
273
273
273
258
237
193
134
78
0
0
0
0
0
0
0
0
0
0
0
0
0
0
0
0
0
0
0
58
90
110
129
148
158
147
145
172
191
192
203
232
252
255
266
272
276
322
318
417
478
659
482
511
497
485
502
550
623
634
616
609
593
531
470
460
431
364
344
361
386
410
415
429
455
435
377
633
278
340
335
326
339
326
244
54
78
160
250
170
42
0
0
0
0
0
0
0
0
0
0
0
0
0
305
24
155
198
238
279
312
354
402
433
456
471
455
442
450
462
477
494
493
508
546
520
508
521
532
509
663
488
575
566
583
558
576
578
580
591
590
575
534
528
506
516
515
538
573
664
665
666
666
665
665
665
665
665
665
665
665
665
665
665
665
665
665
665
665
665
665
664
660
491
413
321
262
188
113
60
0
0
0
0
0
0
0
0
0
0
0
0
0
0
0
0
0
0
0
0
0
0
0
0
0
0
0
0
0
0
0
0
0
0
0
0
0
0
57
66
63
82
103
135
157
184
133
179
255
301
365
423
444
556
618
534
589
581
553
593
576
607
664
663
662
661
585
495
416
350
317
224
127
156
97
122
102
122
150
282
658
531
473
407
348
295
253
205
168
154
134
138
95
82
97
141
137
145
161
169
187
182
182
190
188
167
367
289
484
428
406
449
504
580
604
640
653
603
555
508
490
484
490
486
481
484
476
497
542
571
607
585
513
663
483
492
469
441
392
370
373
383
386
376
357
312
279
267
254
235
217
188
159
141
59
9
4
36
0
310
4
0
0
0
0
77
130
661
315
334
333
333
333
333
333
310
277
260
248
246
235
212
201
201
199
243
241
202
196
200
201
211
224
238
251
269
285
279
253
248
237
250
266
273
268
282
304
304
290
303
307
290
570
234
322
332
335
339
340
354
354
362
354
347
321
298
280
283
279
290
274
288
296
286
285
304
459
530
661
426
446
429
419
411
414
417
420
423
432
430
418
403
400
384
389
369
338
349
348
318
303
296
287
308
379
266
280
287
293
310
314
340
355
373
382
380
358
349
346
344
346
356
363
372
368
351
353
346
336
481
255
343
330
324
323
326
328
333
353
376
416
402
364
337
326
325
296
297
290
289
301
304
297
306
313
329
455
309
381
389
403
408
414
435
432
443
442
438
415
384
361
354
350
355
354
354
348
342
333
336
345
331
315
309
312
301
423
250
309
305
305
302
302
310
312
327
329
337
317
296
283
288
287
294
298
297
297
291
295
305
284
265
262
253
248
527
190
289
310
362
370
360
357
342
331
316
299
259
236
227
225
230
231
240
249
254
273
294
321
325
349
373
393
425
588
446
492
518
527
536
553
552
553
552
539
522
491
460
443
429
412
399
387
370
364
352
322
315
303
294
334
307
279
276
277
276
275
283
286
286
291
287
272
245
237
237
241
240
249
256
258
276
286
271
267
273
281
310
392
280
292
304
310
317
326
337
353
365
370
357
333
325
330
350
361
377
374
377
371
394
375
354
361
356
345
638
294
371
368
370
377
379
389
392
396
394
383
345
325
311
312
303
301
298
296
291
304
309
291
293
290
278
341
301
281
279
275
278
277
290
298
310
341
348
390
421
455
453
413
401
380
373
353
371
353
343
322
329
313
431
260
310
322
310
321
332
329
344
352
352
358
338
314
310
306
306
309
314
322
336
329
317
317
329
312
604
243
341
347
350
355
363
377
387
393
395
388
360
345
344
333
343
345
351
358
375
358
347
349
346
316
604
223
336
335
341
337
343
353
353
364
362
356
331
317
309
303
306
312
313
318
341
351
338
338
348
349
380
468
344
359
368
367
377
382
398
404
407
404
387
355
356
357
356
354
353
340
337
331
348
346
329
324
319
316
407
297
317
323
330
329
340
347
356
366
371
366
346
324
306
307
305
308
311
318
313
323
332
308
301
310
309
315
461
270
310
316
318
315
322
338
344
350
355
336
316
300
299
292
297
295
303
313
322
310
300
307
310
310
571
251
337
329
340
350
339
352
373
364
369
358
336
318
310
313
309
307
309
301
316
328
313
309
313
326
322
594
274
320
322
319
307
305
311
319
322
325
310
282
266
262
268
258
268
277
272
270
294
294
270
268
273
255
405
198
290
278
270
270
268
280
295
309
317
321
306
278
271
275
276
285
281
290
297
300
303
324
317
309
306
315
286
567
220
315
310
313
319
325
336
343
357
359
361
324
299
296
304
303
315
310
313
307
315
313
290
290
288
283
287
426
238
270
270
272
272
286
315
351
369
372
371
347
330
326
329
332
334
335
354
365
345
340
348
345
344
607
294
359
372
378
381
392
401
416
425
429
415
388
373
363
362
361
358
348
346
356
353
347
350
337
329
380
344
312
313
318
320
326
330
337
354
354
356
340
324
303
296
297
293
302
307
298
322
327
312
310
310
319
353
391
308
320
324
332
335
344
356
375
374
386
369
344
334
340
339
349
353
362
360
372
367
394
398
390
390
395
372
619
296
403
403
407
409
417
425
437
445
443
435
412
387
376
365
363
362
357
355
352
358
349
325
324
317
298
440
221
304
301
295
299
304
296
314
314
312
311
289
264
251
257
249
256
259
260
262
279
272
264
259
255
247
396
183
279
268
273
280
281
290
298
313
316
316
303
278
280
279
280
286
291
295
295
311
322
301
305
312
310
326
462
294
311
324
322
321
335
343
355
361
358
352
319
300
304
315
305
319
325
334
326
344
365
340
347
353
351
382
489
340
358
361
375
374
385
381
405
409
399
388
364
350
349
344
351
353
341
352
349
367
359
347
341
339
310
483
281
341
348
352
354
357
367
381
388
383
379
358
331
323
319
319
322
332
322
341
366
348
340
331
321
307
471
224
310
299
303
304
311
308
320
330
331
331
313
297
284
285
296
299
308
317
336
328
313
308
310
293
461
218
310
306
305
307
310
322
337
341
349
339
316
294
285
283
291
289
299
303
314
302
299
310
316
314
605
269
353
355
362
363
367
373
380
386
383
369
343
333
324
327
327
332
330
335
351
340
325
325
327
306
530
219
333
328
337
342
347
352
369
375
373
367
339
311
307
287
295
294
307
267
299
301
282
283
283
276
293
449
272
295
299
314
313
327
340
365
364
367
354
333
315
310
303
315
316
321
346
349
337
331
349
318
552
241
344
344
336
343
346
362
364
375
368
371
345
334
318
331
312
310
334
320
350
328
313
319
325
286
511
216
327
312
339
331
348
343
347
361
372
348
338
311
297
300
317
300
316
318
335
320
318
312
324
319
476
236
323
318
345
318
347
335
374
396
349
375
333
317
322
313
308
316
323
316
323
326
329
333
294
309
317
323
502
300
327
350
344
363
364
369
394
398
394
392
358
354
340
346
340
350
347
349
350
378
362
348
346
359
331
538
242
348
338
337
327
336
330
346
341
345
338
309
280
278
281
287
289
288
301
309
301
287
278
284
266
424
195
282
285
284
292
290
298
305
313
312
310
289
265
255
250
248
255
256
254
280
285
271
274
286
295
305
521
279
329
340
343
350
361
373
382
384
382
371
340
326
320
317
329
329
331
326
323
322
329
345
326
321
325
330
307
589
274
333
338
347
356
367
375
390
398
398
387
353
331
313
314
307
308
308
297
302
309
287
283
265
270
236
482
145
261
258
265
271
286
291
296
299
296
291
270
250
249
259
275
282
300
310
341
348
336
347
351
347
439
322
354
357
361
363
368
378
384
390
390
381
356
322
308
310
314
327
341
350
371
385
373
367
364
358
334
599
278
326
331
335
336
337
355
354
361
359
340
312
295
284
292
274
277
300
327
310
309
328
330
321
445
304
363
368
376
373
373
388
385
387
393
369
352
315
301
308
300
299
300
292
307
315
302
295
295
293
292
503
259
295
293
294
294
305
320
337
337
338
341
303
298
310
305
313
323
325
336
345
334
317
326
326
308
589
260
323
330
342
342
359
369
384
392
394
383
348
323
319
321
321
319
323
324
319
328
340
317
311
317
310
348
379
313
328
334
333
350
349
362
375
375
373
364
341
304
311
314
304
313
313
305
309
316
317
296
301
293
291
324
349
299
298
304
318
331
331
352
362
368
375
345
325
300
287
300
295
292
291
303
322
302
294
292
297
272
547
193
294
299
302
305
309
325
335
335
342
333
317
298
285
286
286
291
285
297
306
302
285
288
288
278
558
203
310
304
313
317
331
335
353
363
365
356
335
309
299
305
309
306
307
316
308
326
337
327
332
342
338
462
294
371
368
373
388
383
397
415
419
425
427
400
371
362
362
364
355
364
361
366
375
351
353
354
353
368
435
334
346
350
351
348
355
369
363
363
360
341
307
294
288
286
289
293
293
312
319
302
294
298
299
311
411
281
304
313
311
319
325
337
344
346
345
332
307
281
280
283
280
286
292
291
313
303
294
298
301
301
296
506
279
306
308
317
327
332
344
359
372
368
358
329
324
315
331
337
348
351
352
346
350
372
364
353
352
344
325
462
245
322
321
317
314
323
332
335
341
337
330
307
273
260
257
253
258
266
270
286
282
268
267
275
280
306
341
279
295
301
310
321
341
336
356
363
364
353
329
324
312
320
326
331
337
360
339
365
365
363
371
377
421
438
390
391
408
416
418
422
443
452
454
446
413
392
378
381
384
381
372
373
391
355
370
365
349
344
343
311
606
241
316
329
320
321
326
334
339
347
339
335
300
271
267
260
264
266
269
274
284
283
266
268
273
271
349
263
286
285
299
297
312
322
334
345
352
354
328
298
301
296
298
305
313
315
322
322
334
339
327
327
332
310
581
244
340
340
345
349
356
365
383
387
392
385
360
337
328
331
336
337
341
339
336
342
346
339
322
326
323
293
581
224
314
314
313
316
319
324
335
344
347
332
306
281
276
280
280
284
288
292
294
313
321
306
306
307
315
383
327
328
333
337
347
353
363
377
385
387
388
366
342
326
321
320
324
333
325
330
323
327
339
328
323
322
320
296
592
249
312
308
316
308
320
328
341
343
345
335
303
280
272
275
281
283
286
291
301
304
307
314
325
334
342
340
337
341
343
346
510
327
347
352
353
361
363
374
387
383
385
371
344
317
306
307
305
318
313
299
304
312
303
324
292
288
290
291
274
548
230
302
304
308
307
308
314
323
316
318
306
275
245
232
234
234
237
240
241
246
260
259
236
246
255
249
495
194
307
314
328
343
355
370
389
401
406
401
374
353
348
349
352
359
363
368
372
374
376
394
387
376
381
377
348
628
271
347
332
326
323
322
329
337
341
345
347
315
294
283
278
281
291
291
297
312
323
306
303
310
315
363
371
335
350
361
365
366
377
384
393
392
391
370
338
321
313
315
307
304
303
297
289
291
290
274
272
275
280
299
409
262
279
283
279
276
286
304
322
333
340
320
300
291
297
305
311
321
332
336
331
337
326
296
284
274
274
268
394
222
259
266
268
273
275
285
286
294
298
289
274
257
251
255
261
273
271
283
293
292
269
271
283
289
392
280
329
328
340
343
348
349
346
347
349
346
321
303
292
290
295
290
285
285
281
285
290
287
281
277
278
265
537
237
293
304
316
325
342
357
371
383
389
382
356
335
333
338
340
347
341
340
341
348
352
357
346
336
335
339
323
510
223
278
271
284
298
321
353
382
407
427
434
419
403
396
398
395
399
399
399
403
423
411
395
397
399
374
547
295
385
373
370
373
369
375
378
379
375
367
347
321
302
302
300
305
309
318
317
330
340
325
322
324
320
303
583
247
307
306
306
320
315
325
343
356
362
349
318
299
290
296
301
304
310
316
318
322
334
359
353
340
339
321
314
564
224
294
299
302
291
301
304
314
312
316
299
247
228
225
231
239
242
247
255
265
272
284
305
297
287
294
297
273
555
234
307
310
315
325
334
352
368
381
389
381
357
334
327
321
322
327
324
322
327
349
328
323
324
325
307
572
239
337
336
344
346
355
363
374
382
382
374
349
331
323
327
327
330
329
334
343
323
315
306
294
273
543
200
264
259
261
264
276
282
293
299
299
287
260
248
249
255
264
268
281
298
306
295
305
313
310
435
279
342
338
345
361
369
387
396
407
404
391
363
329
309
292
297
292
302
300
287
264
263
269
266
474
232
280
290
304
322
341
358
374
377
391
370
343
332
321
296
285
283
285
274
275
228
214
210
214
215
301
212
247
226
228
239
244
263
278
297
309
323
309
288
287
294
299
308
318
325
348
348
338
345
347
351
376
426
362
373
382
391
403
425
443
453
464
467
454
426
417
416
412
413
410
409
409
407
402
420
399
387
390
388
373
640
323
392
397
399
398
404
413
422
424
419
411
391
367
361
357
353
355
347
349
348
316
294
292
279
247
514
188
266
264
271
289
287
311
330
338
353
340
312
300
299
305
273
259
262
266
281
304
292
292
295
307
296
539
276
314
320
329
339
353
371
387
407
411
398
365
348
344
346
339
318
318
324
329
347
334
327
328
334
314
540
252
345
344
347
357
362
375
385
394
393
391
366
337
326
326
325
327
325
329
330
337
352
333
329
330
335
321
563
287
335
331
309
305
309
318
334
342
345
336
315
299
289
294
290
296
299
307
315
285
264
253
249
228
458
187
254
281
275
259
243
224
185
166
169
162
146
131
145
138
152
162
179
208
239
245
238
249
267
256
474
198
309
310
325
336
348
365
384
399
411
410
386
355
342
339
335
340
346
360
366
346
343
352
352
364
455
351
363
367
379
392
405
418
430
430
419
405
373
366
366
372
379
391
389
386
393
397
374
367
362
358
362
442
335
344
349
350
357
358
365
374
374
372
354
329
310
311
308
314
318
331
342
321
320
318
316
332
415
310
315
318
322
328
333
345
355
357
362
344
320
310
303
306
312
330
336
317
312
306
310
311
433
288
313
325
332
338
348
365
373
381
384
372
352
342
348
350
357
367
383
372
360
356
358
340
617
270
359
354
353
355
352
351
359
373
387
354
322
349
342
371
377
389
412
432
425
428
402
412
382
604
276
374
365
359
340
362
357
363
412
312
349
310
296
278
280
280
279
266
277
265
283
269
248
247
263
237
393
179
268
265
278
289
300
304
325
321
326
330
321
309
307
325
340
353
369
379
398
389
411
423
435
393
390
418
406
590
264
301
268
264
251
262
271
278
271
292
289
270
249
229
231
225
243
230
230
226
219
209
182
175
158
155
261
129
180
179
184
200
213
224
239
254
257
260
243
223
224
221
226
219
216
218
217
233
229
224
233
237
240
401
226
312
326
327
530
534
538
546
542
531
539
534
504
486
476
482
484
466
466
459
415
415
415
407
393
559
350
381
387
382
382
387
391
393
391
383
361
335
299
285
274
271
255
235
237
239
223
227
230
202
363
123
220
233
226
263
286
329
348
381
381
309
287
300
308
328
332
343
355
356
375
376
364
368
372
350
600
287
390
391
397
398
414
421
430
439
437
428
396
356
350
344
337
317
313
307
301
326
345
327
314
308
255
240
368
210
276
294
283
307
319
325
343
362
366
375
353
335
330
324
329
326
328
320
314
313
313
318
298
295
292
286
352
271
286
284
287
288
290
285
287
297
283
272
257
238
233
239
252
273
282
299
313
322
351
421
428
441
472
474
471
663
422
521
604
597
583
579
612
650
658
656
643
593
546
521
504
498
483
475
461
458
459
416
410
411
394
367
608
311
366
358
347
336
334
359
355
349
339
327
294
268
260
259
255
257
257
257
266
280
267
244
225
219
191
436
118
214
210
220
226
236
254
278
288
297
295
272
250
250
247
252
256
261
266
278
284
273
273
283
280
312
348
287
297
305
310
321
335
354
372
378
380
362
335
323
322
319
327
327
329
331
331
336
351
332
326
325
325
311
536
297
325
329
335
343
359
371
385
396
399
384
355
338
334
334
325
323
314
306
302
307
289
272
266
265
244
341
202
255
247
256
263
272
289
301
321
319
317
300
275
264
261
263
270
277
281
297
312
294
293
295
281
259
476
207
235
224
238
250
275
307
332
348
359
354
334
326
334
338
342
352
359
371
382
398
388
378
383
383
364
646
319
391
391
397
404
409
425
437
449
450
444
418
401
399
397
403
402
401
402
400
399
379
367
359
356
336
551
313
349
351
355
361
365
377
386
389
386
372
347
327
322
324
323
326
320
329
333
312
298
296
297
289
448
259
287
284
291
297
304
316
325
332
330
314
285
272
277
276
287
286
292
291
303
312
302
303
310
312
299
533
292
325
339
371
413
424
443
460
464
466
445
407
380
366
358
359
358
355
349
347
350
356
341
314
300
288
252
419
176
260
252
258
256
262
273
293
299
301
304
284
257
256
249
257
269
269
270
287
295
285
288
297
303
324
410
304
316
316
312
312
319
322
323
320
320
298
270
260
261
269
275
290
302
308
317
327
314
318
315
320
330
478
329
354
362
371
383
394
408
415
418
420
403
378
365
365
371
374
378
382
387
394
390
388
400
390
388
397
404
384
658
338
399
396
406
419
439
455
467
472
465
452
411
379
360
361
348
331
328
310
301
308
299
284
286
292
289
344
288
295
280
280
279
288
293
297
308
311
305
281
254
244
243
244
252
259
260
271
288
280
278
274
287
265
555
230
308
316
319
335
366
383
401
425
423
413
392
382
373
365
352
339
333
340
337
338
341
318
318
310
301
432
260
331
328
333
347
353
370
383
395
397
393
368
346
334
335
339
340
344
344
348
349
343
351
352
343
328
319
311
290
460
187
256
243
214
207
202
203
216
227
231
199
177
158
154
160
166
177
186
192
198
216
206
199
213
219
202
485
160
263
265
275
295
316
334
351
373
386
392
384
378
370
360
355
346
341
339
341
340
318
312
322
316
346
352
312
323
325
331
337
348
354
357
366
363
349
321
313
311
319
313
320
323
328
338
350
338
332
340
341
337
512
317
341
346
355
370
370
387
394
399
395
381
353
340
328
306
289
279
274
275
276
279
261
271
278
276
321
245
229
235
242
253
271
219
87
105
116
121
107
98
32
31
45
64
90
117
147
168
171
194
206
218
254
255
168
156
140
133
145
158
209
240
265
298
303
286
284
308
292
303
340
340
317
320
318
309
308
316
325
312
560
294
325
314
308
312
319
337
340
353
380
397
357
329
318
314
293
308
309
304
269
274
288
298
281
296
338
347
333
590
348
388
396
444
499
468
510
539
538
506
507
457
402
394
365
319
345
339
316
332
343
360
331
331
344
348
344
578
351
426
448
462
497
493
505
515
517
521
505
472
453
440
433
429
423
417
405
403
378
340
315
292
257
370
156
199
179
166
159
191
194
213
219
217
214
192
176
179
193
191
212
224
239
261
288
318
323
319
333
345
361
497
338
369
374
409
453
422
462
485
465
452
439
424
404
395
395
374
401
395
391
407
408
407
406
399
402
386
381
375
370
386
451
336
344
349
347
311
222
237
250
214
201
196
170
159
160
167
181
188
201
208
215
236
268
255
260
266
281
265
551
207
302
311
308
319
324
339
352
367
374
367
344
323
311
308
307
309
313
313
313
328
319
299
297
300
291
376
281
312
312
329
349
368
375
393
417
443
477
488
459
446
444
442
436
447
445
440
438
428
398
383
363
336
342
299
198
214
206
211
249
272
301
325
344
356
336
314
306
309
314
306
322
312
317
287
274
280
285
272
261
262
255
282
318
246
264
275
293
329
364
401
461
485
525
527
509
495
497
512
497
500
491
485
483
467
426
420
410
404
410
467
354
346
343
335
343
342
348
356
364
371
350
322
301
296
291
286
283
275
281
288
282
245
241
240
241
224
511
211
265
278
278
302
314
320
327
332
338
324
301
291
296
306
302
315
311
320
318
313
317
300
266
231
204
201
285
272
267
217
244
247
254
272
303
329
336
365
358
351
364
370
371
351
328
261
217
186
167
158
164
147
150
168
188
193
427
192
253
277
318
375
454
509
523
566
566
536
501
469
455
453
451
446
430
418
398
391
348
306
300
300
274
486
216
296
306
321
340
373
395
412
420
420
404
366
331
306
305
295
300
294
294
298
279
270
260
198
232
221
232
222
363
194
193
202
227
269
268
289
325
330
325
300
277
270
281
300
310
331
343
346
344
348
350
328
333
341
347
362
546
383
471
525
577
659
662
663
663
664
663
662
646
566
535
503
474
452
432
413
388
367
327
273
237
209
161
315
0
61
116
115
181
218
227
286
331
356
391
390
359
367
383
387
388
396
384
364
339
333
318
291
281
259
248
209
375
84
96
28
0
0
0
4
63
119
155
171
197
280
346
464
540
558
585
602
635
635
627
591
592
623
628
650
664
649
608
593
578
564
558
567
553
528
497
458
403
373
354
336
323
309
295
287
273
270
261
236
228
220
190
169
241
98
95
96
96
128
147
165
178
185
187
178
164
152
164
184
180
200
205
215
210
207
211
229
228
213
205
204
202
327
153
224
212
212
242
279
298
321
339
348
349
326
296
287
287
291
285
298
302
310
295
275
264
267
257
227
204
194
186
266
165
166
140
143
163
180
206
233
279
302
303
294
300
363
482
537
567
624
661
662
662
662
662
662
660
651
628
614
579
662
578
567
558
543
553
544
531
519
509
483
457
414
366
332
305
266
236
224
209
186
163
165
53
60
63
47
52
30
242
0
91
89
97
144
187
203
223
264
273
284
275
255
264
283
287
306
311
344
341
342
341
353
309
284
306
316
315
508
264
254
249
246
261
279
290
306
322
315
317
278
261
267
255
252
242
245
255
258
264
268
279
266
273
286
294
336
359
318
326
338
346
360
378
393
411
433
440
432
409
388
398
439
444
455
468
478
472
463
428
413
406
413
408
550
359
359
342
332
360
362
372
374
369
366
347
315
301
304
312
312
314
314
325
324
327
316
311
313
313
283
571
245
323
325
327
345
353
364
372
383
387
386
359
331
329
335
331
328
325
331
328
326
329
324
310
311
313
303
462
244
321
314
311
332
346
352
364
370
370
357
336
306
296
295
298
299
304
313
318
316
317
329
308
302
307
307
283
566
233
311
313
320
327
347
373
394
405
407
399
369
353
374
397
418
451
451
455
449
459
446
373
350
342
332
356
355
279
256
250
236
251
254
256
248
237
229
223
199
206
194
203
204
239
253
276
371
466
575
662
662
662
660
664
631
585
558
563
578
581
621
643
643
660
663
664
664
664
664
664
663
663
662
661
656
616
565
517
479
448
411
516
319
293
296
306
297
284
273
257
240
225
201
172
158
162
179
179
187
211
243
265
269
297
337
329
360
380
376
342
620
279
342
331
316
310
307
305
309
310
304
291
248
201
181
178
166
167
165
162
170
180
157
152
156
157
136
418
85
132
122
109
130
152
174
188
189
198
188
158
152
174
179
204
233
256
261
266
269
286
292
289
296
300
293
590
271
335
350
364
402
418
437
468
475
468
448
414
370
374
389
428
482
483
483
477
456
435
432
395
385
383
379
375
645
363
418
417
423
419
422
427
428
430
423
416
376
344
332
331
325
327
320
315
305
296
270
263
266
256
246
402
209
225
228
219
227
220
226
232
239
235
232
217
204
198
200
207
202
206
222
228
236
224
226
250
253
267
416
257
283
303
310
341
352
363
371
376
381
370
330
318
316
324
315
331
327
335
329
326
337
328
312
310
303
295
327
311
283
286
289
307
322
329
346
376
377
382
356
325
325
314
324
336
344
348
395
422
476
464
396
394
392
380
507
306
373
379
395
412
436
470
492
522
527
511
467
430
404
382
373
355
347
332
336
333
314
308
300
296
316
362
285
309
307
313
322
334
352
370
382
391
374
346
322
320
321
313
284
261
306
321
315
266
229
206
177
262
155
167
171
191
225
253
287
301
310
349
361
355
317
321
340
339
344
351
376
403
432
445
464
469
493
507
653
593
593
591
597
588
580
567
663
665
665
664
665
664
663
661
659
628
662
661
655
593
544
507
460
420
418
338
292
268
242
230
225
224
230
238
229
223
204
174
164
155
150
144
176
157
178
178
163
169
172
146
266
116
184
183
197
201
207
214
219
237
241
240
225
192
197
210
216
218
224
203
193
201
206
186
178
194
213
205
474
203
265
258
262
269
268
276
298
307
310
310
292
278
290
301
315
325
329
338
352
347
358
376
362
348
348
350
325
529
276
350
348
353
362
368
380
391
401
402
396
364
341
324
327
321
329
326
330
326
336
346
317
312
303
291
267
528
216
289
286
298
313
307
327
336
347
348
347
320
313
301
301
305
321
315
320
336
329
319
316
319
322
359
345
326
325
333
339
353
353
368
388
395
393
382
354
342
342
342
347
354
353
356
360
359
355
344
347
335
469
275
348
344
344
349
361
363
379
392
401
399
358
329
316
320
316
319
325
330
327
330
330
338
333
328
326
335
310
577
278
329
332
333
341
349
365
385
380
414
347
342
334
329
335
330
332
340
341
335
346
350
327
315
323
329
315
492
291
334
332
339
347
369
363
385
390
375
371
336
314
309
314
315
308
307
308
326
331
312
322
319
314
434
259
337
323
332
329
339
347
357
378
378
376
352
330
324
334
333
341
348
343
348
360
354
344
344
337
330
403
308
325
327
317
324
329
343
344
354
360
356
327
299
286
282
280
287
283
283
292
288
289
301
289
289
292
289
294
430
287
297
305
312
319
333
342
362
366
367
352
319
300
299
307
300
302
301
303
305
317
314
301
296
297
290
297
331
257
258
256
257
258
265
280
285
285
282
262
232
207
204
214
205
213
212
221
237
209
192
203
207
185
443
149
208
229
219
233
261
257
305
312
344
315
319
305
322
336
342
350
376
366
394
390
394
391
402
384
653
338
409
415
425
416
423
428
443
451
448
443
410
378
395
378
358
381
372
367
399
394
371
375
369
373
361
563
332
376
362
366
383
371
388
403
404
407
381
360
340
339
338
343
334
349
340
338
344
346
352
341
332
336
337
363
410
335
345
350
355
364
378
358
391
387
406
372
355
339
337
335
340
339
337
337
335
330
350
327
314
321
306
286
529
220
301
298
299
298
304
311
313
318
317
310
279
254
242
242
246
243
606
580
582
565
538
495
478
465
438
472
429
393
393
384
371
362
371
370
372
364
352
336
304
279
271
273
269
269
270
280
271
287
271
259
255
251
228
501
188
256
259
252
243
247
261
283
289
300
303
272
258
263
273
264
284
289
288
293
313
315
318
314
308
314
316
384
297
316
309
318
316
330
349
350
348
365
362
336
314
301
298
306
301
305
307
313
315
309
317
328
303
300
305
315
313
418
293
312
322
327
331
348
352
369
376
380
361
336
321
317
326
313
321
328
316
328
342
326
319
315
317
303
439
250
325
321
325
335
336
349
363
375
381
380
359
342
330
330
334
343
345
353
356
364
367
356
342
341
340
365
427
337
343
343
343
342
341
341
335
341
345
315
285
265
285
341
362
373
367
372
372
375
392
376
370
372
370
345
619
311
363
354
330
328
327
321
313
326
331
326
308
293
294
304
306
310
316
332
341
342
350
357
348
346
349
338
395
343
350
344
348
349
357
359
370
384
388
382
368
330
321
315
311
314
311
315
316
320
320
299
301
300
297
302
373
286
298
298
307
308
320
331
340
350
350
325
309
302
300
304
307
311
311
309
315
326
319
312
308
311
296
485
234
320
319
323
332
341
352
371
375
383
378
354
330
321
323
324
324
333
335
338
345
348
334
330
335
338
380
356
342
346
346
355
359
371
378
386
394
386
362
334
319
318
319
325
316
326
329
329
345
336
322
325
333
300
517
247
326
328
327
337
335
348
362
363
368
365
342
338
371
389
388
396
412
403
396
403
371
359
351
337
310
568
259
325
326
325
336
350
354
364
364
360
346
319
323
320
313
313
311
316
312
322
324
304
296
297
295
318
351
289
300
299
297
304
313
322
329
333
333
319
295
287
292
295
291
285
291
294
295
309
315
305
303
306
304
350
307
299
295
295
294
306
317
330
345
350
355
333
313
300
297
305
312
323
328
339
350
362
369
361
365
375
376
447
370
384
384
383
390
395
401
414
422
439
431
402
372
357
346
342
346
346
344
343
347
356
337
322
324
313
311
405
291
302
311
319
329
336
340
344
343
336
315
282
272
268
269
278
281
289
299
297
283
283
278
270
373
240
288
296
302
311
324
338
354
370
376
373
345
322
314
315
316
323
325
343
347
334
331
329
328
316
520
300
331
340
340
339
346
355
363
367
372
348
319
306
302
300
307
310
315
329
324
312
308
310
303
356
301
304
313
314
319
322
338
350
360
365
364
333
317
303
304
312
311
321
327
332
315
308
315
308
308
447
289
313
321
320
328
339
351
365
370
371
364
325
312
309
310
308
319
344
346
313
314
328
340
338
611
316
388
398
404
399
409
411
416
422
406
389
350
323
318
306
313
320
309
330
329
328
319
321
328
328
350
410
328
332
336
335
340
351
361
364
368
357
332
301
272
266
270
262
276
277
291
307
307
279
291
283
277
389
238
306
293
300
307
307
317
325
336
335
337
312
296
277
282
281
280
286
295
305
308
292
295
292
299
306
417
272
304
277
273
295
316
310
346
341
346
341
313
314
307
322
329
354
364
389
407
398
391
395
395
369
650
327
390
396
396
405
416
404
426
438
450
427
390
373
369
355
358
361
350
358
350
360
341
332
326
319
294
547
224
299
295
290
292
298
308
316
315
313
261
196
134
113
106
99
12
0
0
34
0
0
0
33
53
296
55
182
202
241
274
303
334
367
382
397
410
390
379
386
391
408
419
426
432
455
440
429
430
424
404
576
329
410
397
402
408
413
429
437
445
448
444
414
384
378
382
377
374
372
375
388
376
357
353
350
335
476
280
341
346
342
350
355
363
372
387
389
390
355
348
336
354
371
398
407
427
430
426
436
443
439
407
634
311
391
381
365
359
389
388
393
388
379
372
337
312
307
302
295
298
291
301
315
302
286
291
284
273
534
221
281
277
276
287
294
298
318
324
325
316
290
274
273
274
272
270
276
282
289
272
272
279
279
263
461
269
300
305
326
337
355
370
383
390
382
379
348
330
334
342
339
339
333
346
354
339
329
328
333
327
450
316
329
323
333
334
347
358
381
408
645
624
579
568
570
539
537
542
529
533
495
466
441
431
383
639
289
357
336
324
321
320
327
335
336
333
319
285
261
250
250
247
245
253
264
267
255
248
246
248
267
338
239
251
255
256
270
281
300
314
326
323
304
280
268
272
277
276
289
292
293
300
311
304
300
296
307
305
366
320
322
315
316
319
330
340
355
368
373
367
349
324
316
311
313
317
324
319
328
329
326
333
340
326
332
322
322
343
390
321
322
327
332
340
347
365
381
386
386
368
340
322
316
322
317
320
315
312
316
332
316
302
305
301
290
339
296
291
282
291
300
303
321
332
343
346
346
324
299
285
286
279
286
289
294
293
302
314
286
277
281
271
254
460
208
256
256
256
286
296
326
339
337
331
308
280
267
276
281
281
287
299
308
324
355
354
344
350
353
343
628
297
367
345
353
339
348
369
402
393
339
342
306
273
238
230
201
193
165
153
162
167
87
81
81
96
109
95
341
78
165
192
196
203
221
235
259
273
299
279
275
275
272
285
291
297
309
345
344
344
343
354
355
334
587
274
252
173
82
0
0
0
0
0
0
0
0
0
0
0
0
0
0
0
0
0
0
88
143
190
233
441
292
336
366
397
434
473
505
553
589
622
623
614
605
629
633
646
654
656
658
660
661
660
660
660
658
664
663
660
658
655
654
659
660
661
661
662
661
640
592
588
566
556
551
538
531
519
509
491
485
488
455
450
438
424
410
569
367
372
367
366
370
362
378
381
380
380
362
328
305
297
296
295
289
285
281
294
298
275
265
265
273
258
531
230
301
292
286
291
283
292
308
312
314
299
275
252
240
218
205
217
228
231
260
282
276
292
296
314
353
406
337
355
361
379
387
408
413
426
438
425
420
396
391
399
407
398
397
397
391
397
375
367
357
358
336
589
295
340
338
337
343
354
354
368
372
376
358
330
317
310
307
312
314
314
313
317
326
322
313
312
310
297
406
263
305
301
302
305
322
322
340
354
347
350
323
302
297
293
302
318
315
322
324
310
318
322
298
302
294
289
303
382
292
298
303
332
413
430
458
580
664
664
664
665
666
665
665
665
665
665
665
664
663
639
570
536
472
659
365
398
379
351
339
327
321
317
302
300
269
236
219
202
198
188
183
183
183
187
184
174
174
179
159
302
115
185
180
188
193
208
222
234
253
259
260
231
216
209
213
218
226
234
242
248
262
263
257
261
262
253
433
207
272
274
279
282
292
301
322
330
339
333
305
284
278
279
272
271
269
270
281
267
261
259
260
247
393
193
262
260
255
664
665
665
665
665
664
664
661
588
552
516
492
471
454
436
431
408
372
358
352
311
550
226
306
290
286
288
301
311
314
321
320
309
286
265
262
261
257
262
260
269
278
279
264
264
270
249
470
203
281
279
284
296
309
319
335
345
351
343
310
290
288
287
288
296
289
296
304
310
301
297
299
299
278
549
239
299
306
297
309
320
326
343
342
348
327
294
272
269
261
268
268
268
278
283
262
257
268
265
285
342
261
278
286
294
309
325
345
360
367
370
344
318
312
320
305
313
328
332
349
349
343
356
352
362
406
373
357
359
366
364
371
381
393
401
420
408
387
360
347
339
341
343
346
338
349
341
326
322
320
321
316
509
301
321
319
318
315
327
334
351
357
362
344
310
303
293
297
295
304
320
320
336
330
320
325
331
321
402
319
335
340
345
353
368
372
386
392
388
383
352
324
312
308
294
301
301
290
287
292
287
272
259
261
257
238
387
192
213
204
205
204
214
227
242
257
250
245
218
214
215
220
226
234
250
257
275
262
260
274
294
280
539
265
335
333
349
355
374
391
416
411
426
415
379
365
370
382
399
407
412
405
413
412
405
413
403
394
560
341
409
417
418
426
418
430
447
447
457
447
420
403
401
411
411
416
417
420
408
425
446
432
418
416
415
392
596
333
402
391
383
388
391
394
406
412
419
404
373
337
326
320
311
313
308
298
299
301
282
272
264
266
259
477
214
308
314
310
320
340
342
348
357
348
342
313
288
285
281
285
289
292
296
310
294
285
288
289
286
535
225
301
304
307
314
324
338
348
346
355
344
316
304
293
298
305
307
317
